 This RAW file was created using the MATLAB spectral
 simulation program developed by Robin Simpson
 and Jamie Near, FMRIB 2010

 Experiment Name : semi-LASER78_shapedSim
 Investigator    : jnear
 Comment : Simulated LCModel basis set for shaped semi-LASER experiment with echo time 78 ms

 User defined parameters:

 Sweep Width = 5998.8002 Hz
 Vector Size = 2048 points
 Apodization = 2.0000 Hz
 B0 Field    = 6.9800 T

 $NMID ID=Cr
 FMTDAT=(2E16.6)
 VOLUME=1.00000
 TRAMP=1.00000
 $END
   1.607449E-01   1.541874E-01
   1.919024E-01   1.038009E-01
   2.033524E-01   4.587196E-02
   1.932655E-01  -6.452869E-03
   1.720668E-01  -4.367764E-02
   1.514756E-01  -6.921814E-02
   1.326463E-01  -9.165002E-02
   1.103385E-01  -1.120538E-01
   8.517414E-02  -1.254522E-01
   6.399773E-02  -1.326725E-01
   4.784171E-02  -1.424763E-01
   2.719244E-02  -1.593460E-01
  -6.696028E-03  -1.754046E-01
  -5.069044E-02  -1.792031E-01
  -9.499809E-02  -1.684110E-01
  -1.357930E-01  -1.479118E-01
  -1.755186E-01  -1.179295E-01
  -2.112928E-01  -7.222645E-02
  -2.310970E-01  -1.001196E-02
  -2.254491E-01   5.709601E-02
  -1.978186E-01   1.147589E-01
  -1.585152E-01   1.585004E-01
  -1.119252E-01   1.912606E-01
  -5.651973E-02   2.115182E-01
   3.731281E-03   2.118799E-01
   5.619503E-02   1.908322E-01
   9.135645E-02   1.588547E-01
   1.124044E-01   1.282204E-01
   1.282655E-01   1.009318E-01
   1.408809E-01   7.205374E-02
   1.457718E-01   4.185284E-02
   1.435733E-01   1.699905E-02
   1.429063E-01  -9.415548E-04
   1.488524E-01  -2.082927E-02
   1.544769E-01  -5.142663E-02
   1.487968E-01  -9.008435E-02
   1.295207E-01  -1.271548E-01
   1.019511E-01  -1.585476E-01
   6.733553E-02  -1.868646E-01
   2.025384E-02  -2.102566E-01
  -4.015719E-02  -2.179514E-01
  -1.028268E-01  -2.011177E-01
  -1.536386E-01  -1.634803E-01
  -1.880971E-01  -1.159674E-01
  -2.096726E-01  -6.394873E-02
  -2.180911E-01  -6.383982E-03
  -2.070861E-01   5.318745E-02
  -1.754951E-01   1.028097E-01
  -1.338160E-01   1.331298E-01
  -9.477727E-02   1.472450E-01
  -6.113261E-02   1.545107E-01
  -2.817970E-02   1.578007E-01
   4.262509E-03   1.532304E-01
   2.984870E-02   1.413195E-01
   4.665203E-02   1.305544E-01
   6.301613E-02   1.265695E-01
   8.782308E-02   1.233299E-01
   1.190280E-01   1.102827E-01
   1.472755E-01   8.509264E-02
   1.683261E-01   5.332542E-02
   1.849774E-01   1.707261E-02
   1.964009E-01  -2.841591E-02
   1.930578E-01  -8.420406E-02
   1.667448E-01  -1.399221E-01
   1.213538E-01  -1.818466E-01
   6.827327E-02  -2.055852E-01
   1.368660E-02  -2.151813E-01
  -4.309173E-02  -2.116125E-01
  -9.907605E-02  -1.897494E-01
  -1.431425E-01  -1.487754E-01
  -1.662666E-01  -9.913606E-02
  -1.715695E-01  -5.388533E-02
  -1.688858E-01  -1.640172E-02
  -1.620589E-01   1.787877E-02
  -1.478550E-01   4.968872E-02
  -1.267156E-01   7.315908E-02
  -1.069623E-01   8.617020E-02
  -9.469964E-02   9.667475E-02
  -8.471338E-02   1.137570E-01
  -6.681571E-02   1.360665E-01
  -3.852483E-02   1.546508E-01
  -5.503291E-03   1.651994E-01
   2.949697E-02   1.707057E-01
   7.070037E-02   1.713085E-01
   1.194853E-01   1.586497E-01
   1.663117E-01   1.250962E-01
   1.979882E-01   7.459452E-02
   2.103147E-01   1.881672E-02
   2.079137E-01  -3.542190E-02
   1.929776E-01  -8.858978E-02
   1.614837E-01  -1.383709E-01
   1.129197E-01  -1.746103E-01
   5.757834E-02  -1.887544E-01
   8.685349E-03  -1.840362E-01
  -2.990247E-02  -1.707879E-01
  -6.271769E-02  -1.538209E-01
  -9.114941E-02  -1.305674E-01
  -1.099476E-01  -1.013910E-01
  -1.169528E-01  -7.438502E-02
  -1.198325E-01  -5.600981E-02
  -1.279283E-01  -4.176549E-02
  -1.406383E-01  -2.174311E-02
  -1.494844E-01   6.797892E-03
  -1.501250E-01   3.826436E-02
  -1.457119E-01   6.942139E-02
  -1.372623E-01   1.040990E-01
  -1.175116E-01   1.440808E-01
  -7.931225E-02   1.807529E-01
  -2.653660E-02   2.015584E-01
   2.904401E-02   2.025415E-01
   8.016541E-02   1.888724E-01
   1.272106E-01   1.638834E-01
   1.686322E-01   1.245897E-01
   1.953548E-01   7.071144E-02
   1.994066E-01   1.226668E-02
   1.841882E-01  -3.751622E-02
   1.605123E-01  -7.445845E-02
   1.341179E-01  -1.031702E-01
   1.030796E-01  -1.257931E-01
   6.764961E-02  -1.378205E-01
   3.560127E-02  -1.371829E-01
   1.361445E-02  -1.313414E-01
  -2.222308E-03  -1.299176E-01
  -2.163590E-02  -1.330736E-01
  -4.773736E-02  -1.328375E-01
  -7.515914E-02  -1.248393E-01
  -1.003447E-01  -1.123200E-01
  -1.268396E-01  -9.705562E-02
  -1.568942E-01  -7.276155E-02
  -1.828798E-01  -3.267350E-02
  -1.929370E-01   1.954593E-02
  -1.833691E-01   7.220752E-02
  -1.598277E-01   1.177726E-01
  -1.266749E-01   1.566550E-01
  -8.186464E-02   1.881499E-01
  -2.525431E-02   2.043390E-01
   3.354761E-02   1.979081E-01
   8.148411E-02   1.724453E-01
   1.142104E-01   1.391920E-01
   1.365155E-01   1.047372E-01
   1.513720E-01   6.773980E-02
   1.551145E-01   2.827889E-02
   1.458631E-01  -6.302668E-03
   1.309200E-01  -2.925649E-02
   1.201748E-01  -4.404023E-02
   1.145313E-01  -6.029649E-02
   1.065164E-01  -8.160828E-02
   9.170292E-02  -1.029706E-01
   7.332488E-02  -1.206430E-01
   5.377612E-02  -1.379680E-01
   2.762079E-02  -1.576911E-01
  -1.163249E-02  -1.731887E-01
  -6.066290E-02  -1.733226E-01
  -1.080323E-01  -1.546344E-01
  -1.460843E-01  -1.231603E-01
  -1.753561E-01  -8.415455E-02
  -1.960292E-01  -3.638686E-02
  -2.013830E-01   2.025735E-02
  -1.847981E-01   7.671694E-02
  -1.500359E-01   1.202755E-01
  -1.086811E-01   1.465683E-01
  -6.806388E-02   1.606480E-01
  -2.734039E-02   1.663710E-01
   1.366497E-02   1.609791E-01
   4.816132E-02   1.428476E-01
   6.948675E-02   1.191339E-01
   8.077898E-02   9.994902E-02
   9.168537E-02   8.688022E-02
   1.063437E-01   7.291333E-02
   1.202220E-01   5.350819E-02
   1.295029E-01   3.177760E-02
   1.373769E-01   1.057873E-02
   1.470764E-01  -1.481375E-02
   1.529653E-01  -5.072727E-02
   1.446127E-01  -9.430203E-02
   1.187478E-01  -1.344990E-01
   8.166965E-02  -1.636752E-01
   3.936753E-02  -1.825555E-01
  -8.710183E-03  -1.922166E-01
  -6.276383E-02  -1.871378E-01
  -1.144110E-01  -1.613947E-01
  -1.514311E-01  -1.188753E-01
  -1.695667E-01  -7.139445E-02
  -1.741953E-01  -2.688863E-02
  -1.700796E-01   1.509555E-02
  -1.553991E-01   5.508154E-02
  -1.288138E-01   8.695331E-02
  -9.731745E-02   1.042849E-01
  -7.116514E-02   1.100178E-01
  -5.253814E-02   1.138762E-01
  -3.481435E-02   1.206100E-01
  -1.326639E-02   1.262385E-01
   9.237832E-03   1.269417E-01
   2.953561E-02   1.257746E-01
   5.177796E-02   1.264149E-01
   8.222659E-02   1.241600E-01
   1.185812E-01   1.092413E-01
   1.503220E-01   7.850014E-02
   1.699198E-01   3.836118E-02
   1.783193E-01  -4.619686E-03
   1.774657E-01  -5.045703E-02
   1.630034E-01  -9.954595E-02
   1.296691E-01  -1.442990E-01
   8.140269E-02  -1.731241E-01
   3.011454E-02  -1.819730E-01
  -1.580386E-02  -1.765809E-01
  -5.653435E-02  -1.626057E-01
  -9.304334E-02  -1.391580E-01
  -1.200046E-01  -1.051780E-01
  -1.313634E-01  -6.744693E-02
  -1.299702E-01  -3.625977E-02
  -1.256750E-01  -1.427878E-02
  -1.238664E-01   4.811986E-03
  -1.211585E-01   2.601100E-02
  -1.137679E-01   4.681943E-02
  -1.045990E-01   6.392069E-02
  -9.770160E-02   8.101658E-02
  -8.922298E-02   1.043829E-01
  -6.998625E-02   1.323504E-01
  -3.685326E-02   1.550052E-01
   3.770691E-03   1.649997E-01
   4.493236E-02   1.634963E-01
   8.624630E-02   1.532493E-01
   1.283981E-01   1.309989E-01
   1.646886E-01   9.207967E-02
   1.842584E-01   4.038817E-02
   1.833405E-01  -1.221740E-02
   1.680287E-01  -5.705060E-02
   1.448312E-01  -9.414266E-02
   1.137483E-01  -1.249912E-01
   7.396420E-02  -1.451587E-01
   3.197398E-02  -1.490745E-01
  -2.011012E-03  -1.395791E-01
  -2.497657E-02  -1.266692E-01
  -4.302850E-02  -1.163659E-01
  -6.152112E-02  -1.058863E-01
  -7.844010E-02  -9.148915E-02
  -9.045210E-02  -7.588454E-02
  -1.009161E-01  -6.339552E-02
  -1.161775E-01  -5.091227E-02
  -1.352377E-01  -2.976159E-02
  -1.488412E-01   3.273151E-03
  -1.498542E-01   4.194927E-02
  -1.396248E-01   7.907767E-02
  -1.216252E-01   1.139968E-01
  -9.359482E-02   1.477579E-01
  -5.138016E-02   1.746148E-01
   1.273458E-03   1.845124E-01
   5.271258E-02   1.740039E-01
   9.411476E-02   1.495115E-01
   1.254750E-01   1.183164E-01
   1.488956E-01   8.123591E-02
   1.609029E-01   3.763607E-02
   1.564961E-01  -6.365939E-03
   1.385576E-01  -4.077741E-02
   1.172214E-01  -6.236838E-02
   9.910248E-02  -7.713177E-02
   8.199484E-02  -9.085456E-02
   6.217610E-02  -1.021058E-01
   4.209426E-02  -1.076506E-01
   2.622812E-02  -1.105872E-01
   1.208866E-02  -1.173575E-01
  -8.590176E-03  -1.276402E-01
  -3.920141E-02  -1.328548E-01
  -7.379779E-02  -1.260818E-01
  -1.050999E-01  -1.087942E-01
  -1.322738E-01  -8.506767E-02
  -1.567855E-01  -5.352207E-02
  -1.738746E-01  -1.041604E-02
  -1.743264E-01   4.076895E-02
  -1.550214E-01   8.873239E-02
  -1.226500E-01   1.246652E-01
  -8.516140E-02   1.486259E-01
  -4.409146E-02   1.633734E-01
   1.093588E-03   1.664448E-01
   4.475617E-02   1.534629E-01
   7.726028E-02   1.273735E-01
   9.529458E-02   9.840880E-02
   1.048290E-01   7.370794E-02
   1.121447E-01   5.158657E-02
   1.164696E-01   2.829311E-02
   1.147554E-01   5.929420E-03
   1.098933E-01  -1.099831E-02
   1.084188E-01  -2.448681E-02
   1.106617E-01  -4.249148E-02
   1.086995E-01  -6.867013E-02
   9.579935E-02  -9.748575E-02
   7.347636E-02  -1.216913E-01
   4.627758E-02  -1.403590E-01
   1.357162E-02  -1.553894E-01
  -2.807652E-02  -1.630064E-01
  -7.555774E-02  -1.548384E-01
  -1.180601E-01  -1.280692E-01
  -1.469198E-01  -8.957201E-02
  -1.623379E-01  -4.783679E-02
  -1.677552E-01  -5.000845E-03
  -1.617349E-01   3.946217E-02
  -1.405442E-01   8.049806E-02
  -1.071834E-01   1.089600E-01
  -7.191631E-02   1.215794E-01
  -4.231029E-02   1.243787E-01
  -1.712337E-02   1.241727E-01
   7.490534E-03   1.208958E-01
   2.986862E-02   1.117442E-01
   4.560805E-02   9.942589E-02
   5.633950E-02   9.053769E-02
