 This RAW file was created using the MATLAB spectral
 simulation program developed by Robin Simpson
 and Jamie Near, FMRIB 2010

 Experiment Name : semi-LASER78_shapedSim
 Investigator    : jnear
 Comment : Simulated LCModel basis set for shaped semi-LASER experiment with echo time 78 ms

 User defined parameters:

 Sweep Width = 5998.8002 Hz
 Vector Size = 2048 points
 Apodization = 2.0000 Hz
 B0 Field    = 6.9800 T

 $NMID ID=GABA
 FMTDAT=(2E16.6)
 VOLUME=1.00000
 TRAMP=1.00000
 $END
   1.288093E-01   5.367872E-02
   1.359404E-01   4.861989E-02
   1.388070E-01   4.207005E-02
   1.372016E-01   3.467414E-02
   1.311487E-01   2.709686E-02
   1.208637E-01   1.995066E-02
   1.067003E-01   1.379051E-02
   8.915139E-02   9.129947E-03
   6.887370E-02   6.406061E-03
   4.665999E-02   5.909124E-03
   2.335711E-02   7.756977E-03
  -1.906769E-04   1.193302E-02
  -2.313729E-02   1.831616E-02
  -4.463100E-02   2.665312E-02
  -6.387209E-02   3.652334E-02
  -8.019547E-02   4.736806E-02
  -9.309953E-02   5.856439E-02
  -1.022217E-01   6.946472E-02
  -1.073363E-01   7.938550E-02
  -1.084051E-01   8.761661E-02
  -1.056135E-01   9.349510E-02
  -9.933493E-02   9.648774E-02
  -9.006051E-02   9.621064E-02
  -7.837318E-02   9.240635E-02
  -6.496047E-02   8.495490E-02
  -5.059178E-02   7.392845E-02
  -3.603537E-02   5.961552E-02
  -2.198419E-02   4.247320E-02
  -9.048118E-03   2.306391E-02
   2.227474E-03   2.045028E-03
   1.138991E-02  -1.981330E-02
   1.814372E-02  -4.165790E-02
   2.237387E-02  -6.263500E-02
   2.410481E-02  -8.194988E-02
   2.346334E-02  -9.886400E-02
   2.069782E-02  -1.126865E-01
   1.620898E-02  -1.228232E-01
   1.052051E-02  -1.288512E-01
   4.203706E-03  -1.305426E-01
  -2.165777E-03  -1.278316E-01
  -7.998591E-03  -1.207998E-01
  -1.269702E-02  -1.097125E-01
  -1.572173E-02  -9.504652E-02
  -1.666948E-02  -7.744689E-02
  -1.528960E-02  -5.764939E-02
  -1.145477E-02  -3.644379E-02
  -5.161340E-03  -1.468026E-02
   3.425954E-03   6.753928E-03
   1.395503E-02   2.701547E-02
   2.593748E-02   4.537939E-02
   3.881732E-02   6.124699E-02
   5.198808E-02   7.412291E-02
   6.477731E-02   8.363424E-02
   7.647306E-02   8.958696E-02
   8.640190E-02   9.198456E-02
   9.398656E-02   9.098248E-02
   9.874017E-02   8.684243E-02
   1.002498E-01   7.994190E-02
   9.821327E-02   7.079931E-02
   9.250406E-02   6.004324E-02
   8.318727E-02   4.833505E-02
   7.047881E-02   3.632116E-02
   5.471822E-02   2.463964E-02
   3.639288E-02   1.391775E-02
   1.615803E-02   4.711107E-03
  -5.209089E-03  -2.570186E-03
  -2.689147E-02  -7.676313E-03
  -4.807434E-02  -1.048410E-02
  -6.794085E-02  -1.098895E-02
  -8.569100E-02  -9.341763E-03
  -1.006157E-01  -5.865008E-03
  -1.121664E-01  -1.001130E-03
  -1.199585E-01   4.758905E-03
  -1.237407E-01   1.089677E-02
  -1.234012E-01   1.685173E-02
  -1.190135E-01   2.204206E-02
  -1.108480E-01   2.593753E-02
  -9.932009E-02   2.811411E-02
  -8.493502E-02   2.824557E-02
  -6.828740E-02   2.607995E-02
  -5.008020E-02   2.146620E-02
  -3.109281E-02   1.441086E-02
  -1.210258E-02   5.089866E-03
   6.166362E-03  -6.197048E-03
   2.303813E-02  -1.906143E-02
   3.788360E-02  -3.300963E-02
   5.017400E-02  -4.742542E-02
   5.954947E-02  -6.161426E-02
   6.583078E-02  -7.488449E-02
   6.898035E-02  -8.658996E-02
   6.908496E-02  -9.612329E-02
   6.638398E-02  -1.029267E-01
   6.128140E-02  -1.065556E-01
   5.429293E-02  -1.067404E-01
   4.597110E-02  -1.033834E-01
   3.687921E-02  -9.651903E-02
   2.760473E-02  -8.630729E-02
   1.874140E-02  -7.306848E-02
   1.082127E-02  -5.728858E-02
   4.261435E-03  -3.956300E-02
  -6.264818E-04  -2.053487E-02
  -3.607822E-03  -8.871284E-04
  -4.543457E-03   1.864083E-02
  -3.440362E-03   3.728239E-02
  -4.614263E-04   5.431894E-02
   4.122174E-03   6.912969E-02
   9.971126E-03   8.118420E-02
   1.666654E-02   9.003298E-02
   2.369284E-02   9.535016E-02
   3.047813E-02   9.699330E-02
   3.647216E-02   9.500917E-02
   4.118784E-02   8.958747E-02
   4.419129E-02   8.103288E-02
   4.510433E-02   6.978347E-02
   4.365816E-02   5.641800E-02
   3.974793E-02   4.160146E-02
   3.342570E-02   2.600733E-02
   2.485339E-02   1.028724E-02
   1.428771E-02  -4.916567E-03
   2.107305E-03  -1.898478E-02
  -1.118370E-02  -3.138355E-02
  -2.501155E-02  -4.171493E-02
  -3.879608E-02  -4.970560E-02
  -5.196081E-02  -5.517292E-02
  -6.391417E-02  -5.803501E-02
  -7.407175E-02  -5.835491E-02
  -8.192417E-02  -5.634803E-02
  -8.708232E-02  -5.233262E-02
  -8.926469E-02  -4.668474E-02
  -8.827871E-02  -3.984446E-02
  -8.405150E-02  -3.233222E-02
  -7.668063E-02  -2.471164E-02
  -6.643432E-02  -1.751407E-02
  -5.369919E-02  -1.119710E-02
  -3.894365E-02  -6.156050E-03
  -2.272876E-02  -2.727688E-03
  -5.713190E-03  -1.144411E-03
   1.139962E-02  -1.484337E-03
   2.793870E-02  -3.680330E-03
   4.329667E-02  -7.570551E-03
   5.691497E-02  -1.291970E-02
   6.829012E-02  -1.939641E-02
   7.702766E-02  -2.656899E-02
   8.288707E-02  -3.395843E-02
   8.576626E-02  -4.110076E-02
   8.566050E-02  -4.755737E-02
   8.266261E-02  -5.289310E-02
   7.699935E-02  -5.669088E-02
   6.903549E-02  -5.861199E-02
   5.922186E-02  -5.843688E-02
   4.804529E-02  -5.604847E-02
   3.602962E-02  -5.140591E-02
   2.375117E-02  -4.456577E-02
   1.180501E-02  -3.572608E-02
   7.325335E-04  -2.522417E-02
  -9.019242E-03  -1.348204E-02
  -1.708419E-02  -9.652424E-04
  -2.316692E-02   1.180979E-02
  -2.708041E-02   2.426897E-02
  -2.879079E-02   3.582789E-02
  -2.840631E-02   4.596440E-02
  -2.612356E-02   5.424693E-02
  -2.220047E-02   6.031466E-02
  -1.697465E-02   6.387426E-02
  -1.086825E-02   6.474367E-02
  -4.338079E-03   6.289026E-02
   2.185875E-03   5.841092E-02
   8.311311E-03   5.148445E-02
   1.365943E-02   4.236304E-02
   1.787314E-02   3.140227E-02
   2.067112E-02   1.906378E-02
   2.188571E-02   5.863279E-03
   2.144440E-02  -7.681517E-03
   1.933862E-02  -2.105231E-02
   1.563809E-02  -3.371284E-02
   1.053088E-02  -4.513654E-02
   4.321539E-03  -5.487308E-02
  -2.622762E-03  -6.258592E-02
  -9.915112E-03  -6.803505E-02
  -1.714265E-02  -7.105911E-02
  -2.385632E-02  -7.160385E-02
  -2.961132E-02  -6.976100E-02
  -3.403409E-02  -6.575491E-02
  -3.684759E-02  -5.988556E-02
  -3.784705E-02  -5.249612E-02
  -3.688850E-02  -4.398711E-02
  -3.392399E-02  -3.482198E-02
  -2.903500E-02  -2.548035E-02
  -2.241060E-02  -1.639786E-02
  -1.429631E-02  -7.954837E-03
  -4.980132E-03  -5.025819E-04
   5.180692E-03   5.638709E-03
   1.575537E-02   1.022786E-02
   2.628818E-02   1.313792E-02
   3.634938E-02   1.433618E-02
   4.553608E-02   1.384871E-02
   5.345076E-02   1.176848E-02
   5.972085E-02   8.291833E-03
   6.405786E-02   3.717339E-03
   6.629060E-02  -1.606983E-03
   6.634369E-02  -7.327795E-03
   6.421227E-02  -1.308146E-02
   5.998179E-02  -1.848081E-02
   5.386177E-02  -2.314938E-02
   4.617110E-02  -2.678355E-02
   3.727974E-02  -2.917585E-02
   2.757254E-02  -3.018774E-02
   1.746129E-02  -2.973200E-02
   7.392662E-03  -2.780118E-02
  -2.193256E-03  -2.449825E-02
  -1.091968E-02  -2.001497E-02
  -1.848302E-02  -1.457989E-02
  -2.462297E-02  -8.441193E-03
  -2.911736E-02  -1.892496E-03
  -3.182290E-02   4.719437E-03
  -3.270691E-02   1.103821E-02
  -3.182558E-02   1.674600E-02
  -2.928458E-02   2.156308E-02
  -2.524130E-02   2.522213E-02
  -1.993811E-02   2.748003E-02
  -1.370225E-02   2.817036E-02
  -6.894907E-03   2.723332E-02
   1.336069E-04   2.469183E-02
   7.039664E-03   2.062112E-02
   1.347011E-02   1.516227E-02
   1.909031E-02   8.553279E-03
   2.364154E-02   1.115725E-03
   2.696250E-02  -6.802137E-03
   2.895997E-02  -1.486225E-02
   2.958583E-02  -2.272465E-02
   2.885983E-02  -3.003497E-02
   2.689822E-02  -3.645902E-02
   2.389331E-02  -4.173450E-02
   2.006161E-02  -4.567857E-02
   1.562452E-02  -4.815409E-02
   1.083343E-02  -4.905758E-02
   5.981001E-03  -4.835326E-02
   1.362638E-03  -4.610203E-02
  -2.769308E-03  -4.243915E-02
  -6.204420E-03  -3.753239E-02
  -8.745458E-03  -3.157987E-02
  -1.021407E-02  -2.484148E-02
  -1.049789E-02  -1.764106E-02
  -9.578861E-03  -1.031870E-02
  -7.508808E-03  -3.186774E-03
  -4.375980E-03   3.465671E-03
  -3.144000E-04   9.352905E-03
   4.466133E-03   1.421382E-02
   9.690369E-03   1.786392E-02
   1.507149E-02   2.021472E-02
   2.034739E-02   2.124234E-02
   2.526758E-02   2.095970E-02
   2.957609E-02   1.943388E-02
   3.303899E-02   1.681315E-02
   3.549153E-02   1.330826E-02
   3.684389E-02   9.141267E-03
   3.704499E-02   4.524824E-03
   3.606497E-02  -3.131631E-04
   3.392423E-02  -5.114663E-03
   3.072118E-02  -9.624973E-03
   2.661118E-02  -1.363599E-02
   2.176428E-02  -1.698464E-02
   1.636081E-02  -1.952170E-02
   1.062245E-02  -2.111207E-02
   4.818334E-03  -2.167718E-02
  -7.779355E-04  -2.122243E-02
  -5.930155E-03  -1.981314E-02
  -1.043397E-02  -1.753929E-02
  -1.409293E-02  -1.452158E-02
  -1.673310E-02  -1.094113E-02
  -1.824990E-02  -7.032643E-03
  -1.862596E-02  -3.034041E-03
  -1.789874E-02   8.488798E-04
  -1.612920E-02   4.428698E-03
  -1.341518E-02   7.515117E-03
  -9.917905E-03   9.936509E-03
  -5.846156E-03   1.158313E-02
  -1.407260E-03   1.241232E-02
   3.214053E-03   1.241129E-02
   7.830590E-03   1.157592E-02
   1.223384E-02   9.936231E-03
   1.622196E-02   7.584308E-03
   1.964028E-02   4.656029E-03
   2.237930E-02   1.289864E-03
   2.434157E-02  -2.378604E-03
   2.543720E-02  -6.185037E-03
   2.562225E-02  -9.926033E-03
   2.492582E-02  -1.339714E-02
   2.342733E-02  -1.643252E-02
   2.122029E-02  -1.889883E-02
   1.841599E-02  -2.066823E-02
   1.517325E-02  -2.162750E-02
   1.169525E-02  -2.172086E-02
   8.183016E-03  -2.096755E-02
   4.801066E-03  -1.942993E-02
   1.691568E-03  -1.718027E-02
  -1.001026E-03  -1.431148E-02
  -3.146143E-03  -1.096429E-02
  -4.667156E-03  -7.315292E-03
  -5.546794E-03  -3.531102E-03
  -5.789995E-03   2.522950E-04
  -5.400184E-03   3.903735E-03
  -4.402098E-03   7.274006E-03
  -2.870621E-03   1.021853E-02
  -9.158537E-04   1.263523E-02
   1.356318E-03   1.446266E-02
