 This RAW file was created using the MATLAB spectral
 simulation program developed by Robin Simpson
 and Jamie Near, FMRIB 2010

 Experiment Name : semi-LASER78_shapedSim
 Investigator    : jnear
 Comment : Simulated LCModel basis set for shaped semi-LASER experiment with echo time 78 ms

 User defined parameters:

 Sweep Width = 5998.8002 Hz
 Vector Size = 2048 points
 Apodization = 2.0000 Hz
 B0 Field    = 6.9800 T

 $NMID ID=Gln
 FMTDAT=(2E16.6)
 VOLUME=1.00000
 TRAMP=1.00000
 $END
   4.914322E-02   6.899051E-02
   6.356175E-02   5.434893E-02
   6.956485E-02   3.709842E-02
   6.997824E-02   1.944203E-02
   6.399817E-02   3.195293E-04
   4.781329E-02  -1.667720E-02
   2.351757E-02  -2.325237E-02
   7.257343E-04  -1.645208E-02
  -1.375331E-02  -2.549542E-03
  -2.178980E-02   1.241267E-02
  -2.576314E-02   2.947890E-02
  -2.141531E-02   4.936994E-02
  -5.145507E-03   6.478191E-02
   1.698204E-02   6.738697E-02
   3.496159E-02   5.833895E-02
   4.603601E-02   4.465813E-02
   5.304529E-02   2.850837E-02
   5.462799E-02   7.771349E-03
   4.532161E-02  -1.459699E-02
   2.508680E-02  -2.985036E-02
   1.684457E-03  -3.293524E-02
  -1.772830E-02  -2.682630E-02
  -3.217165E-02  -1.612485E-02
  -4.241148E-02  -1.344352E-03
  -4.554268E-02   1.784186E-02
  -3.757996E-02   3.699185E-02
  -1.988576E-02   4.841623E-02
   3.487727E-04   4.823485E-02
   1.674320E-02   3.926485E-02
   2.840422E-02   2.577134E-02
   3.611032E-02   8.031338E-03
   3.652020E-02  -1.457222E-02
   2.501488E-02  -3.688877E-02
   3.891483E-03  -5.012084E-02
  -1.802309E-02  -5.139630E-02
  -3.528892E-02  -4.562920E-02
  -4.945381E-02  -3.626120E-02
  -6.055705E-02  -2.086198E-02
  -6.227487E-02   4.875433E-04
  -5.060819E-02   1.931694E-02
  -3.151444E-02   2.723448E-02
  -1.375399E-02   2.523543E-02
   1.118061E-03   1.849119E-02
   1.510345E-02   6.626280E-03
   2.444034E-02  -1.336522E-02
   2.204341E-02  -3.756935E-02
   7.695470E-03  -5.646094E-02
  -1.129432E-02  -6.520318E-02
  -2.936398E-02  -6.631477E-02
  -4.650313E-02  -6.212751E-02
  -6.215535E-02  -5.076108E-02
  -7.105044E-02  -3.152400E-02
  -6.809928E-02  -9.891452E-03
  -5.463919E-02   6.159671E-03
  -3.692751E-02   1.317268E-02
  -1.946603E-02   1.301845E-02
  -2.646809E-03   7.301558E-03
   1.250186E-02  -5.698263E-03
   2.058270E-02  -2.642737E-02
   1.643541E-02  -4.893633E-02
   2.165735E-03  -6.472459E-02
  -1.493381E-02  -7.124593E-02
  -3.127388E-02  -7.185338E-02
  -4.827573E-02  -6.727045E-02
  -6.400469E-02  -5.368151E-02
  -7.062636E-02  -3.160344E-02
  -6.391401E-02  -9.844964E-03
  -4.922768E-02   3.834221E-03
  -3.341247E-02   1.038479E-02
  -1.647556E-02   1.296724E-02
   2.964535E-03   8.680402E-03
   1.925081E-02  -6.375576E-03
   2.425340E-02  -2.783789E-02
   1.761850E-02  -4.628060E-02
   5.652649E-03  -5.766323E-02
  -8.231821E-03  -6.408942E-02
  -2.524081E-02  -6.556818E-02
  -4.379906E-02  -5.796079E-02
  -5.690678E-02  -4.014522E-02
  -5.890987E-02  -1.798665E-02
  -5.102305E-02   1.109925E-03
  -3.801447E-02   1.455303E-02
  -2.208501E-02   2.328466E-02
  -2.918625E-03   2.632447E-02
   1.707888E-02   2.015187E-02
   3.117685E-02   4.311554E-03
   3.412044E-02  -1.519873E-02
   2.760918E-02  -3.096770E-02
   1.689149E-02  -4.109651E-02
   3.405770E-03  -4.742393E-02
  -1.436371E-02  -4.815752E-02
  -3.307098E-02  -3.829935E-02
  -4.412751E-02  -1.848735E-02
  -4.340083E-02   2.946086E-03
  -3.535300E-02   1.956162E-02
  -2.448751E-02   3.249160E-02
  -9.064495E-03   4.300319E-02
   1.195893E-02   4.598494E-02
   3.172156E-02   3.680312E-02
   4.178701E-02   1.981688E-02
   4.184632E-02   3.531479E-03
   3.686910E-02  -9.358846E-03
   2.781776E-02  -2.070817E-02
   1.214643E-02  -2.842529E-02
  -7.926503E-03  -2.650541E-02
  -2.445138E-02  -1.345802E-02
  -3.185761E-02   5.034975E-03
  -3.127492E-02   2.290846E-02
  -2.566522E-02   3.884825E-02
  -1.475471E-02   5.303666E-02
   2.596835E-03   6.226142E-02
   2.311271E-02   6.162715E-02
   3.956134E-02   5.061501E-02
   4.713118E-02   3.463750E-02
   4.706884E-02   1.936274E-02
   4.235249E-02   5.752703E-03
   3.222641E-02  -6.729145E-03
   1.494363E-02  -1.423424E-02
  -5.349816E-03  -1.097713E-02
  -2.012433E-02   2.471798E-03
  -2.573601E-02   1.891568E-02
  -2.564487E-02   3.376991E-02
  -2.189030E-02   4.857428E-02
  -1.102291E-02   6.301676E-02
   7.880045E-03   7.034266E-02
   2.747394E-02   6.552766E-02
   3.978243E-02   5.263576E-02
   4.481057E-02   3.863870E-02
   4.609705E-02   2.450229E-02
   4.217081E-02   8.433165E-03
   2.923143E-02  -5.800892E-03
   9.812031E-03  -1.094033E-02
  -7.977606E-03  -5.349656E-03
  -1.931669E-02   5.866237E-03
  -2.540992E-02   1.852391E-02
  -2.738080E-02   3.285889E-02
  -2.262557E-02   4.853336E-02
  -9.247447E-03   6.066702E-02
   9.062334E-03   6.361077E-02
   2.537810E-02   5.688611E-02
   3.587032E-02   4.489412E-02
   4.142732E-02   3.114024E-02
   4.282126E-02   1.546248E-02
   3.733368E-02  -1.692780E-03
   2.297756E-02  -1.508280E-02
   4.121469E-03  -1.869741E-02
  -1.154548E-02  -1.301479E-02
  -2.128615E-02  -3.672944E-03
  -2.764332E-02   6.898713E-03
  -3.037716E-02   2.080362E-02
  -2.461393E-02   3.658085E-02
  -9.442641E-03   4.656103E-02
   7.969000E-03   4.579670E-02
   2.080548E-02   3.792261E-02
   2.968009E-02   2.800197E-02
   3.680834E-02   1.508840E-02
   3.858334E-02  -2.723584E-03
   3.022895E-02  -2.054533E-02
   1.435095E-02  -3.061279E-02
  -1.490946E-03  -3.148797E-02
  -1.381427E-02  -2.749688E-02
  -2.410720E-02  -2.066700E-02
  -3.184328E-02  -9.131634E-03
  -3.249156E-02   6.483144E-03
  -2.362586E-02   2.028912E-02
  -8.989337E-03   2.658668E-02
   5.488112E-03   2.513814E-02
   1.740765E-02   1.911094E-02
   2.746390E-02   9.690674E-03
   3.451382E-02  -4.442125E-03
   3.433563E-02  -2.219204E-02
   2.483223E-02  -3.765914E-02
   1.013710E-02  -4.522987E-02
  -3.525999E-03  -4.538212E-02
  -1.465223E-02  -4.201658E-02
  -2.504340E-02  -3.537900E-02
  -3.258630E-02  -2.278389E-02
  -3.146234E-02  -6.406479E-03
  -2.079374E-02   5.928552E-03
  -7.063722E-03   9.850453E-03
   4.591142E-03   8.567081E-03
   1.561154E-02   5.126312E-03
   2.711589E-02  -3.257424E-03
   3.387135E-02  -1.866435E-02
   3.057474E-02  -3.563738E-02
   1.980228E-02  -4.665967E-02
   8.045708E-03  -5.086809E-02
  -2.942457E-03  -5.178296E-02
  -1.509294E-02  -4.929183E-02
  -2.655346E-02  -4.005383E-02
  -3.145899E-02  -2.484556E-02
  -2.722635E-02  -9.928257E-03
  -1.744133E-02  -3.766101E-04
  -6.566796E-03   4.056886E-03
   4.691551E-03   5.288682E-03
   1.698911E-02   2.314727E-03
   2.770824E-02  -7.173990E-03
   3.175093E-02  -2.169237E-02
   2.717375E-02  -3.537745E-02
   1.759594E-02  -4.359459E-02
   7.392279E-03  -4.698356E-02
  -3.322047E-03  -4.776241E-02
  -1.580304E-02  -4.423772E-02
  -2.660922E-02  -3.328849E-02
  -2.958495E-02  -1.743872E-02
  -2.402457E-02  -3.976575E-03
  -1.541165E-02   3.759792E-03
  -6.922619E-03   8.651635E-03
   3.803469E-03   1.187067E-02
   1.706695E-02   9.108289E-03
   2.664713E-02  -1.820652E-03
   2.726585E-02  -1.536496E-02
   2.149374E-02  -2.491035E-02
   1.445751E-02  -3.050142E-02
   6.024205E-03  -3.494381E-02
  -6.240453E-03  -3.623723E-02
  -1.953928E-02  -2.992022E-02
  -2.735701E-02  -1.688229E-02
  -2.739651E-02  -3.210089E-03
  -2.300921E-02   7.214135E-03
  -1.695375E-02   1.534706E-02
  -8.195616E-03   2.198811E-02
   3.971724E-03   2.430803E-02
   1.595133E-02   1.934923E-02
   2.245302E-02   8.834455E-03
   2.200835E-02  -1.973575E-03
   1.759873E-02  -9.862686E-03
   1.161479E-02  -1.578094E-02
   2.818036E-03  -2.046976E-02
  -9.655101E-03  -2.073732E-02
  -2.161775E-02  -1.330251E-02
  -2.721062E-02  -7.749400E-04
  -2.610082E-02   1.063611E-02
  -2.264567E-02   1.895171E-02
  -1.804002E-02   2.685074E-02
  -9.083114E-03   3.394056E-02
   3.949412E-03   3.488812E-02
   1.449108E-02   2.759763E-02
   1.783478E-02   1.737836E-02
   1.664016E-02   9.477184E-03
   1.458201E-02   2.740805E-03
   9.734339E-03  -5.053534E-03
  -7.630734E-04  -1.042999E-02
  -1.352006E-02  -8.304803E-03
  -2.203630E-02   2.466872E-04
  -2.473315E-02   9.700232E-03
  -2.475442E-02   1.773220E-02
  -2.315629E-02   2.612812E-02
  -1.735471E-02   3.477456E-02
  -6.621129E-03   3.953329E-02
   4.918995E-03   3.726008E-02
   1.241393E-02   2.988130E-02
   1.517492E-02   2.168684E-02
   1.554809E-02   1.422951E-02
   1.404619E-02   6.182982E-03
   8.316609E-03  -2.007566E-03
  -2.172519E-03  -6.219364E-03
  -1.301509E-02  -3.381854E-03
  -1.920843E-02   3.944172E-03
  -2.099021E-02   1.095832E-02
  -2.161880E-02   1.717217E-02
  -2.052173E-02   2.514134E-02
  -1.390794E-02   3.330568E-02
  -2.467232E-03   3.589907E-02
   7.449627E-03   3.118384E-02
   1.216336E-02   2.403397E-02
   1.453239E-02   1.808584E-02
   1.686362E-02   1.104497E-02
   1.574408E-02   1.153349E-03
   8.098988E-03  -7.127561E-03
  -2.361130E-03  -8.652781E-03
  -9.708728E-03  -4.827877E-03
  -1.342033E-02  -3.951505E-04
  -1.649602E-02   4.016635E-03
  -1.846785E-02   1.099630E-02
  -1.557475E-02   1.971969E-02
  -7.199552E-03   2.530384E-02
   2.365650E-03   2.490560E-02
   9.207652E-03   2.068944E-02
   1.363356E-02   1.578169E-02
   1.742071E-02   1.005372E-02
   1.948626E-02   1.836707E-03
   1.675459E-02  -7.541431E-03
   9.055900E-03  -1.362361E-02
   6.026498E-04  -1.393704E-02
  -4.867025E-03  -1.095587E-02
  -8.284168E-03  -7.954265E-03
  -1.191982E-02  -4.009820E-03
  -1.381022E-02   3.299255E-03
  -9.941825E-03   1.163928E-02
  -1.343338E-03   1.539020E-02
   6.274296E-03   1.344020E-02
   1.055847E-02   1.014548E-02
   1.463012E-02   7.502543E-03
   1.961797E-02   2.219214E-03
   2.107454E-02  -7.059669E-03
   1.602029E-02  -1.537107E-02
   8.315386E-03  -1.804430E-02
   2.925123E-03  -1.697801E-02
  -8.602230E-04  -1.606380E-02
  -5.939818E-03  -1.432585E-02
  -1.060870E-02  -8.555760E-03
  -1.041773E-02  -1.400597E-04
  -5.072635E-03   5.820398E-03
   1.212988E-03   7.219039E-03
   5.780613E-03   6.520625E-03
