 This RAW file was created using the MATLAB spectral
 simulation program developed by Robin Simpson
 and Jamie Near, FMRIB 2010

 Experiment Name : semi-LASER78_shapedSim
 Investigator    : jnear
 Comment : Simulated LCModel basis set for shaped semi-LASER experiment with echo time 78 ms

 User defined parameters:

 Sweep Width = 5998.8002 Hz
 Vector Size = 2048 points
 Apodization = 2.0000 Hz
 B0 Field    = 6.9800 T

 $NMID ID=Glu
 FMTDAT=(2E16.6)
 VOLUME=1.00000
 TRAMP=1.00000
 $END
   1.242554E-01   6.275315E-02
   1.361232E-01   5.411786E-02
   1.427423E-01   4.143778E-02
   1.428964E-01   2.731350E-02
   1.366163E-01   1.460184E-02
   1.251700E-01   5.870695E-03
   1.108361E-01   2.887564E-03
   9.645195E-02   6.234956E-03
   8.481190E-02   1.518463E-02
   7.809242E-02   2.787972E-02
   7.745160E-02   4.173213E-02
   8.283051E-02   5.391448E-02
   9.294808E-02   6.189606E-02
   1.055334E-01   6.396797E-02
   1.178050E-01   5.961437E-02
   1.270679E-01   4.959565E-02
   1.312468E-01   3.575275E-02
   1.292641E-01   2.063652E-02
   1.212525E-01   7.028091E-03
   1.085566E-01  -2.613673E-03
   9.346951E-02  -6.672377E-03
   7.874403E-02  -4.705567E-03
   6.702558E-02   2.496400E-03
   6.034320E-02   1.309502E-02
   5.972963E-02   2.456566E-02
   6.501441E-02   3.418651E-02
   7.484485E-02   3.958838E-02
   8.696232E-02   3.925012E-02
   9.868146E-02   3.280829E-02
   1.074451E-01   2.110689E-02
   1.113214E-01   6.005352E-03
   1.093656E-01  -9.985505E-03
   1.018131E-01  -2.418247E-02
   9.005404E-02  -3.427013E-02
   7.634866E-02  -3.879047E-02
   6.333834E-02  -3.743241E-02
   5.350439E-02  -3.105259E-02
   4.870398E-02  -2.147977E-02
   4.982084E-02  -1.117096E-02
   5.656519E-02  -2.736333E-03
   6.751193E-02   1.612805E-03
   8.041549E-02   5.361350E-04
   9.269613E-02  -6.190306E-03
   1.019423E-01  -1.766854E-02
   1.063567E-01  -3.205319E-02
   1.051170E-01  -4.689083E-02
   9.856705E-02  -5.961591E-02
   8.814100E-02  -6.809668E-02
   7.603700E-02  -7.106493E-02
   6.475928E-02  -6.833599E-02
   5.663639E-02  -6.082370E-02
   5.337080E-02  -5.036882E-02
   5.568539E-02  -3.938243E-02
   6.316306E-02  -3.034894E-02
   7.434096E-02  -2.530664E-02
   8.703007E-02  -2.544199E-02
   9.876274E-02  -3.087845E-02
   1.072686E-01  -4.067030E-02
   1.109111E-01  -5.298389E-02
   1.090228E-01  -6.545248E-02
   1.020541E-01  -7.566549E-02
   9.146732E-02  -8.167948E-02
   7.940591E-02  -8.240349E-02
   6.825621E-02  -7.778223E-02
   6.019765E-02  -6.879397E-02
   5.677796E-02  -5.727978E-02
   5.857596E-02  -4.558552E-02
   6.507200E-02  -3.605993E-02
   7.478721E-02  -3.056140E-02
   8.561420E-02  -3.011511E-02
   9.522334E-02  -3.474535E-02
   1.015000E-01  -4.346279E-02
   1.029805E-01  -5.443958E-02
   9.917425E-02  -6.539318E-02
   9.065085E-02  -7.408291E-02
   7.888548E-02  -7.876085E-02
   6.595226E-02  -7.848982E-02
   5.413172E-02  -7.331827E-02
   4.546406E-02  -6.428847E-02
   4.132196E-02  -5.323507E-02
   4.212467E-02  -4.239489E-02
   4.727499E-02  -3.393656E-02
   5.530930E-02  -2.953356E-02
   6.419857E-02  -3.005365E-02
   7.174214E-02  -3.539561E-02
   7.600457E-02  -4.449953E-02
   7.572090E-02  -5.555555E-02
   7.056385E-02  -6.638917E-02
   6.119115E-02  -7.492263E-02
   4.908173E-02  -7.958331E-02
   3.623723E-02  -7.958778E-02
   2.480591E-02  -7.509195E-02
   1.665553E-02  -6.718128E-02
   1.297119E-02  -5.765237E-02
   1.401189E-02  -4.861407E-02
   1.909810E-02  -4.204283E-02
   2.677943E-02  -3.941375E-02
   3.510916E-02  -4.143230E-02
   4.201404E-02  -4.787623E-02
   4.573236E-02  -5.761825E-02
   4.519740E-02  -6.887535E-02
   4.023501E-02  -7.960428E-02
   3.155870E-02  -8.790683E-02
   2.062083E-02  -9.237723E-02
   9.344133E-03  -9.237714E-02
  -2.634018E-04  -8.818332E-02
  -6.538147E-03  -8.093116E-02
  -8.504562E-03  -7.235487E-02
  -6.046838E-03  -6.441629E-02
   9.347608E-05  -5.892022E-02
   8.465891E-03  -5.717055E-02
   1.718971E-02  -5.970752E-02
   2.433530E-02  -6.618554E-02
   2.833141E-02  -7.544438E-02
   2.828785E-02  -8.576728E-02
   2.415152E-02  -9.524582E-02
   1.668925E-02  -1.021518E-01
   7.334528E-03  -1.052602E-01
  -2.083104E-03  -1.040960E-01
  -9.713599E-03  -9.904999E-02
  -1.408944E-02  -9.129221E-02
  -1.442437E-02  -8.249820E-02
  -1.073568E-02  -7.449576E-02
  -3.819444E-03  -6.892466E-02
   4.888205E-03  -6.692619E-02
   1.358393E-02  -6.889176E-02
   2.048691E-02  -7.436664E-02
   2.422373E-02  -8.217078E-02
   2.408293E-02  -9.067332E-02
   2.012024E-02  -9.811294E-02
   1.314754E-02  -1.029236E-01
   4.591216E-03  -1.040534E-01
  -3.803455E-03  -1.012020E-01
  -1.035652E-02  -9.487674E-02
  -1.379942E-02  -8.625723E-02
  -1.350476E-02  -7.694046E-02
  -9.593576E-03  -6.863407E-02
  -2.918872E-03  -6.282719E-02
   5.096020E-03  -6.048224E-02
   1.275625E-02  -6.182843E-02
   1.845908E-02  -6.632548E-02
   2.101951E-02  -7.280067E-02
   1.988662E-02  -7.970151E-02
   1.523518E-02  -8.539782E-02
   7.936353E-03  -8.849607E-02
  -6.055269E-04  -8.813062E-02
  -8.750770E-03  -8.415733E-02
  -1.498432E-02  -7.717123E-02
  -1.821984E-02  -6.835109E-02
  -1.798518E-02  -5.921229E-02
  -1.450331E-02  -5.132757E-02
  -8.668895E-03  -4.602104E-02
  -1.875258E-03  -4.407557E-02
   4.300105E-03  -4.556234E-02
   8.439157E-03  -4.985987E-02
   9.546732E-03  -5.581318E-02
   7.220337E-03  -6.195540E-02
   1.740492E-03  -6.677985E-02
  -5.963538E-03  -6.905706E-02
  -1.451552E-02  -6.811068E-02
  -2.240417E-02  -6.394566E-02
  -2.829072E-02  -5.721232E-02
  -3.125137E-02  -4.906336E-02
  -3.095067E-02  -4.093863E-02
  -2.772231E-02  -3.428240E-02
  -2.250746E-02  -3.023486E-02
  -1.664455E-02  -2.938878E-02
  -1.157557E-02  -3.168383E-02
  -8.555748E-03  -3.644450E-02
  -8.419259E-03  -4.252497E-02
  -1.142002E-02  -4.852832E-02
  -1.716904E-02  -5.308197E-02
  -2.470508E-02  -5.513043E-02
  -3.270755E-02  -5.416390E-02
  -3.978895E-02  -5.030577E-02
  -4.476959E-02  -4.425619E-02
  -4.688726E-02  -3.714662E-02
  -4.594560E-02  -3.033381E-02
  -4.237632E-02  -2.512703E-02
  -3.715344E-02  -2.249362E-02
  -3.156087E-02  -2.285332E-02
  -2.691184E-02  -2.602592E-02
  -2.430726E-02  -3.129351E-02
  -2.443688E-02  -3.752822E-02
  -2.742314E-02  -4.339997E-02
  -3.277510E-02  -4.766473E-02
  -3.950733E-02  -4.944367E-02
  -4.637343E-02  -4.838794E-02
  -5.211626E-02  -4.471511E-02
  -5.569576E-02  -3.915980E-02
  -5.649525E-02  -3.284450E-02
  -5.446592E-02  -2.705298E-02
  -5.014012E-02  -2.294642E-02
  -4.449956E-02  -2.131589E-02
  -3.875665E-02  -2.243882E-02
  -3.411548E-02  -2.604367E-02
  -3.154474E-02  -3.136493E-02
  -3.158257E-02  -3.728538E-02
  -3.421388E-02  -4.256278E-02
  -3.887151E-02  -4.610045E-02
  -4.457335E-02  -4.718045E-02
  -5.014289E-02  -4.559156E-02
  -5.443981E-02  -4.164689E-02
  -5.656947E-02  -3.612242E-02
  -5.606765E-02  -3.011893E-02
  -5.301790E-02  -2.483291E-02
  -4.803182E-02  -2.128362E-02
  -4.209093E-02  -2.010066E-02
  -3.633323E-02  -2.142804E-02
  -3.184787E-02  -2.491357E-02
  -2.947164E-02  -2.975955E-02
  -2.959772E-02  -3.486959E-02
  -3.207800E-02  -3.909637E-02
  -3.627781E-02  -4.150081E-02
  -4.123729E-02  -4.152643E-02
  -4.585985E-02  -3.908159E-02
  -4.911038E-02  -3.456085E-02
  -5.022979E-02  -2.878638E-02
  -4.891320E-02  -2.283638E-02
  -4.537197E-02  -1.779878E-02
  -4.026434E-02  -1.454215E-02
  -3.454675E-02  -1.355949E-02
  -2.929121E-02  -1.488467E-02
  -2.548074E-02  -1.807924E-02
  -2.380286E-02  -2.231067E-02
  -2.449532E-02  -2.652964E-02
  -2.730094E-02  -2.970439E-02
  -3.154257E-02  -3.103764E-02
  -3.627587E-02  -3.011143E-02
  -4.047068E-02  -2.695543E-02
  -4.320505E-02  -2.204931E-02
  -4.386258E-02  -1.624161E-02
  -4.227906E-02  -1.056661E-02
  -3.876853E-02  -6.006031E-03
  -3.402761E-02  -3.289027E-03
  -2.898540E-02  -2.773765E-03
  -2.463918E-02  -4.385816E-03
  -2.186092E-02  -7.610394E-03
  -2.119338E-02  -1.158755E-02
  -2.272393E-02  -1.531659E-02
  -2.609302E-02  -1.788332E-02
  -3.059433E-02  -1.862740E-02
  -3.530587E-02  -1.725127E-02
  -3.925475E-02  -1.389143E-02
  -4.162611E-02  -9.113294E-03
  -4.195459E-02  -3.786399E-03
  -4.021453E-02   1.121542E-03
  -3.679731E-02   4.745484E-03
  -3.242182E-02   6.477585E-03
  -2.800313E-02   6.081226E-03
  -2.447370E-02   3.752619E-03
  -2.257873E-02   9.041110E-05
  -2.270885E-02  -4.039353E-03
  -2.482700E-02  -7.699636E-03
  -2.849591E-02  -1.007483E-02
  -3.297419E-02  -1.062033E-02
  -3.735415E-02  -9.164496E-03
  -4.073742E-02  -5.956022E-03
  -4.243238E-02  -1.624990E-03
  -4.211327E-02   2.960753E-03
  -3.987581E-02   6.897752E-03
  -3.619010E-02   9.428145E-03
  -3.180281E-02   1.006910E-02
  -2.760829E-02   8.708950E-03
  -2.446851E-02   5.655495E-03
  -2.300835E-02   1.579083E-03
  -2.347617E-02  -2.653879E-03
  -2.572023E-02  -6.175525E-03
  -2.924070E-02  -8.271461E-03
  -3.327401E-02  -8.505589E-03
  -3.692900E-02  -6.825540E-03
  -3.938598E-02  -3.594687E-03
  -4.009021E-02   4.970127E-04
  -3.885706E-02   4.602814E-03
  -3.588326E-02   7.891138E-03
  -3.170467E-02   9.693567E-03
  -2.710617E-02   9.638848E-03
  -2.296541E-02   7.748000E-03
  -2.005457E-02   4.437598E-03
  -1.887034E-02   4.182215E-04
  -1.954376E-02  -3.467140E-03
  -2.183098E-02  -6.410708E-03
  -2.516339E-02  -7.789651E-03
  -2.875034E-02  -7.291717E-03
  -3.173802E-02  -4.994271E-03
  -3.340185E-02  -1.355996E-03
  -3.330920E-02   2.893654E-03
  -3.139569E-02   6.923013E-03
  -2.795744E-02   9.960458E-03
  -2.359588E-02   1.143082E-02
  -1.911734E-02   1.107690E-02
  -1.536589E-02   9.036998E-03
  -1.302277E-02   5.817595E-03
  -1.246051E-02   2.160238E-03
  -1.369419E-02  -1.122437E-03
  -1.639313E-02  -3.289444E-03
  -1.992684E-02  -3.808382E-03
  -2.347787E-02  -2.486712E-03
  -2.623067E-02   4.684703E-04
  -2.756258E-02   4.510292E-03
  -2.715908E-02   8.889216E-03
  -2.505370E-02   1.279846E-02
  -2.162621E-02   1.551618E-02
  -1.754660E-02   1.655605E-02
  -1.363732E-02   1.578864E-02
  -1.068289E-02   1.347124E-02
