 This RAW file was created using the MATLAB spectral
 simulation program developed by Robin Simpson
 and Jamie Near, FMRIB 2010

 Experiment Name : semi-LASER78_shapedSim
 Investigator    : jnear
 Comment : Simulated LCModel basis set for shaped semi-LASER experiment with echo time 78 ms

 User defined parameters:

 Sweep Width = 5998.8002 Hz
 Vector Size = 2048 points
 Apodization = 2.0000 Hz
 B0 Field    = 6.9800 T

 $NMID ID=H2O
 FMTDAT=(2E16.6)
 VOLUME=1.00000
 TRAMP=1.00000
 $END
  -1.585488E-02   4.044810E-04
  -1.133640E-02   1.141935E-02
  -5.334016E-04   1.643217E-02
   1.080224E-02   1.277223E-02
   1.663874E-02   2.386733E-03
   1.387418E-02  -9.201090E-03
   3.982493E-03  -1.583469E-02
  -7.777320E-03  -1.399895E-02
  -1.516359E-02  -4.684122E-03
  -1.427131E-02   7.149639E-03
  -5.601941E-03   1.521728E-02
   6.214243E-03   1.525209E-02
   1.489015E-02   7.267786E-03
   1.582858E-02  -4.460977E-03
   8.561746E-03  -1.368390E-02
  -3.011925E-03  -1.550535E-02
  -1.271460E-02  -8.985401E-03
  -1.538350E-02   2.370751E-03
  -9.617037E-03   1.249045E-02
   1.487688E-03   1.597349E-02
   1.199383E-02   1.096694E-02
   1.629228E-02   1.456007E-04
   1.208881E-02  -1.071987E-02
   1.621222E-03  -1.584064E-02
  -9.537955E-03  -1.249207E-02
  -1.545200E-02  -2.460246E-03
  -1.297960E-02   8.914191E-03
  -3.442086E-03   1.558198E-02
   8.086083E-03   1.400324E-02
   1.548162E-02   5.025050E-03
   1.482905E-02  -6.577413E-03
   6.496749E-03  -1.464724E-02
  -5.069257E-03  -1.492107E-02
  -1.371889E-02  -7.289988E-03
  -1.487190E-02   4.154167E-03
  -7.948715E-03   1.330648E-02
   3.332989E-03   1.530184E-02
   1.294857E-02   9.099752E-03
   1.577911E-02  -1.972513E-03
   1.033408E-02  -1.200260E-02
  -4.637154E-04  -1.564736E-02
  -1.084415E-02  -1.097721E-02
  -1.526850E-02  -4.974387E-04
  -1.137917E-02   1.019358E-02
  -1.250694E-03   1.539062E-02
   9.721005E-03   1.231979E-02
   1.569545E-02   2.611395E-03
   1.349638E-02  -8.573490E-03
   4.297780E-03  -1.529356E-02
  -7.007022E-03  -1.398817E-02
  -1.441330E-02  -5.366511E-03
  -1.399895E-02   5.977476E-03
  -6.004718E-03   1.401492E-02
   5.303481E-03   1.448961E-02
   1.391212E-02   7.175592E-03
   1.526137E-02  -4.013628E-03
   8.665323E-03  -1.311759E-02
  -2.334510E-03  -1.530459E-02
  -1.186525E-02  -9.438757E-03
  -1.485428E-02   1.325819E-03
  -9.727199E-03   1.123515E-02
   7.623639E-04   1.500522E-02
   1.100861E-02   1.063481E-02
   1.554484E-02   4.649771E-04
   1.195488E-02  -1.007552E-02
   2.155063E-03  -1.536638E-02
  -8.632478E-03  -1.258881E-02
  -1.466448E-02  -3.222372E-03
  -1.273384E-02   7.748316E-03
  -3.872422E-03   1.449039E-02
   7.204016E-03   1.342642E-02
   1.460938E-02   5.133005E-03
   1.441868E-02  -5.973264E-03
   6.750384E-03  -1.399139E-02
  -4.305711E-03  -1.467585E-02
  -1.287218E-02  -7.689046E-03
  -1.441286E-02   3.229658E-03
  -8.140728E-03   1.226321E-02
   2.574224E-03   1.461603E-02
   1.200925E-02   9.061914E-03
   1.514024E-02  -1.413297E-03
   1.031394E-02  -1.121198E-02
   1.198231E-04  -1.511118E-02
  -9.998355E-03  -1.104299E-02
  -1.464755E-02  -1.189249E-03
  -1.135753E-02   9.188303E-03
  -1.891445E-03   1.455537E-02
   8.699493E-03   1.205243E-02
   1.476990E-02   3.013213E-03
   1.308577E-02  -7.750899E-03
   4.541988E-03  -1.451591E-02
  -6.319722E-03  -1.369149E-02
  -1.373205E-02  -5.727001E-03
  -1.377082E-02   5.134602E-03
  -6.437435E-03   1.311998E-02
   4.350536E-03   1.399764E-02
   1.285113E-02   7.323381E-03
   1.455481E-02  -3.333326E-03
   8.578596E-03  -1.229767E-02
  -1.874378E-03  -1.481278E-02
  -1.122976E-02  -9.567326E-03
  -1.451421E-02   6.162231E-04
  -1.000050E-02   1.029455E-02
  -1.188534E-04   1.430768E-02
   9.846798E-03   1.052552E-02
   1.457851E-02   9.756371E-04
   1.155630E-02  -9.244639E-03
   2.395143E-03  -1.468794E-02
  -8.021576E-03  -1.245801E-02
  -1.414683E-02  -3.747888E-03
  -1.272356E-02   6.801006E-03
  -4.514736E-03   1.357384E-02
   6.108578E-03   1.297111E-02
   1.349796E-02   5.319972E-03
   1.373350E-02  -5.306646E-03
   6.704520E-03  -1.326269E-02
  -3.839683E-03  -1.433373E-02
  -1.229171E-02  -7.973870E-03
  -1.417139E-02   2.413035E-03
  -8.504762E-03   1.129319E-02
   1.667385E-03   1.395107E-02
   1.091759E-02   8.995175E-03
   1.432553E-02  -9.106541E-04
   1.009485E-02  -1.047550E-02
   5.012347E-04  -1.460406E-02
  -9.328803E-03  -1.110853E-02
  -1.415363E-02  -1.866992E-03
  -1.140774E-02   8.184833E-03
  -2.562946E-03   1.368736E-02
   7.662064E-03   1.171173E-02
   1.381915E-02   3.315376E-03
   1.263203E-02  -7.026903E-03
   4.736700E-03  -1.380963E-02
  -5.663020E-03  -1.342756E-02
  -1.303743E-02  -6.090406E-03
  -1.347402E-02   4.295287E-03
  -6.754866E-03   1.221019E-02
   3.535006E-03   1.345983E-02
   1.192179E-02   7.401580E-03
   1.395737E-02  -2.722058E-03
   8.581686E-03  -1.151707E-02
  -1.322454E-03  -1.431170E-02
  -1.047299E-02  -9.639036E-03
  -1.400470E-02  -8.753412E-06
  -1.005662E-02   9.438654E-03
  -7.546567E-04   1.367409E-02
   8.929574E-03   1.045638E-02
   1.383182E-02   1.519043E-03
   1.134519E-02  -8.360955E-03
   2.803283E-03  -1.391262E-02
  -7.236915E-03  -1.217842E-02
  -1.342667E-02  -4.085072E-03
  -1.247411E-02   6.056046E-03
  -4.893021E-03   1.284886E-02
   5.276538E-03   1.268562E-02
   1.262320E-02   5.663280E-03
   1.324482E-02  -4.474264E-03
   6.820978E-03  -1.233375E-02
  -3.223596E-03  -1.374357E-02
  -1.154782E-02  -7.969197E-03
  -1.373833E-02   1.904083E-03
  -8.653653E-03   1.062081E-02
   9.770908E-04   1.355524E-02
   1.001559E-02   9.169544E-03
   1.365355E-02  -1.763317E-04
   9.969780E-03  -9.490219E-03
   9.451475E-04  -1.381071E-02
  -8.601106E-03  -1.084759E-02
  -1.358323E-02  -2.194775E-03
  -1.135708E-02   7.526715E-03
  -3.122860E-03   1.313519E-02
   6.721130E-03   1.164818E-02
   1.292587E-02   3.866367E-03
   1.218727E-02  -6.059058E-03
   4.901597E-03  -1.284129E-02
  -5.051237E-03  -1.287316E-02
  -1.237766E-02  -6.143652E-03
  -1.318881E-02   3.762161E-03
  -7.066440E-03   1.157635E-02
   2.721191E-03   1.315282E-02
   1.096482E-02   7.669696E-03
   1.328819E-02  -1.941061E-03
   8.472920E-03  -1.056128E-02
  -9.014207E-04  -1.361324E-02
  -9.838496E-03  -9.492605E-03
  -1.358861E-02  -4.140722E-04
  -1.017469E-02   8.776381E-03
  -1.437213E-03   1.318648E-02
   7.954595E-03   1.048122E-02
   1.299464E-02   2.119609E-03
   1.100550E-02  -7.430606E-03
   3.058733E-03  -1.307768E-02
  -6.602993E-03  -1.181779E-02
  -1.283045E-02  -4.330279E-03
  -1.231055E-02   5.390422E-03
  -5.326780E-03   1.216650E-02
   4.397504E-03   1.239442E-02
   1.168604E-02   5.959915E-03
   1.266607E-02  -3.707091E-03
   6.826093E-03  -1.146324E-02
  -2.718351E-03  -1.319044E-02
  -1.088871E-02  -7.983772E-03
  -1.334798E-02   1.374184E-03
  -8.805097E-03   9.901079E-03
   3.056691E-04   1.306916E-02
   9.128172E-03   9.211893E-03
   1.297302E-02   4.032106E-04
   9.811553E-03  -8.655013E-03
   1.348373E-03  -1.314100E-02
  -7.894925E-03  -1.067899E-02
  -1.299282E-02  -2.597548E-03
  -1.123830E-02   6.786068E-03
  -3.578889E-03   1.247050E-02
   5.895218E-03   1.143401E-02
   1.213458E-02   4.239308E-03
   1.182033E-02  -5.272489E-03
   5.127807E-03  -1.203228E-02
  -4.372700E-03  -1.244311E-02
  -1.162174E-02  -6.291892E-03
  -1.276529E-02   3.143043E-03
  -7.202893E-03   1.084209E-02
   2.098864E-03   1.271747E-02
   1.019091E-02   7.785488E-03
   1.277753E-02  -1.316649E-03
   8.499271E-03  -9.740874E-03
  -3.507392E-04  -1.301125E-02
  -9.054790E-03  -9.403311E-03
  -1.298545E-02  -8.545139E-04
  -1.006656E-02   8.075343E-03
  -1.871251E-03   1.263621E-02
   7.224057E-03   1.041535E-02
   1.237511E-02   2.615449E-03
   1.084887E-02  -6.593891E-03
   3.473414E-03  -1.230199E-02
  -5.810355E-03  -1.147258E-02
  -1.205283E-02  -4.556405E-03
  -1.193253E-02   4.755436E-03
  -5.521136E-03   1.150226E-02
   3.760671E-03   1.209647E-02
   1.096958E-02   6.230438E-03
   1.227269E-02  -2.965515E-03
   6.984771E-03  -1.059451E-02
  -2.072729E-03  -1.260123E-02
  -1.007893E-02  -7.927428E-03
  -1.278139E-02   9.310278E-04
  -8.756482E-03   9.258841E-03
  -1.602791E-04   1.263365E-02
   8.426199E-03   9.277094E-03
   1.243889E-02   9.942383E-04
   9.757971E-03  -7.795101E-03
   1.829351E-03  -1.241362E-02
  -7.113193E-03  -1.041531E-02
  -1.230731E-02  -2.881444E-03
  -1.099749E-02   6.163118E-03
  -3.896929E-03   1.189869E-02
   5.199695E-03   1.127782E-02
   1.144263E-02   4.643690E-03
   1.151074E-02  -4.459394E-03
   5.376390E-03  -1.117880E-02
  -3.685938E-03  -1.193888E-02
  -1.084825E-02  -6.341695E-03
  -1.230102E-02   2.626709E-03
  -7.278509E-03   1.019106E-02
   1.539168E-03   1.233059E-02
   9.458023E-03   7.916709E-03
   1.227083E-02  -6.922463E-04
   8.493792E-03  -8.912244E-03
   1.498499E-04  -1.237610E-02
  -8.314817E-03  -9.255374E-03
  -1.240072E-02  -1.226842E-03
  -9.948054E-03   7.427422E-03
  -2.279812E-03   1.210374E-02
   6.510314E-03   1.032647E-02
   1.174251E-02   3.059900E-03
   1.064228E-02  -5.813061E-03
   3.812340E-03  -1.156403E-02
  -5.095859E-03  -1.113748E-02
  -1.133228E-02  -4.773331E-03
  -1.157887E-02   4.127664E-03
  -5.712881E-03   1.082036E-02
   3.133879E-03   1.174350E-02
   1.024784E-02   6.413087E-03
   1.184513E-02  -2.325451E-03
   7.083632E-03  -9.817329E-03
  -1.494149E-03  -1.207840E-02
  -9.319841E-03  -7.913614E-03
  -1.223316E-02   4.524451E-04
  -8.693913E-03   8.565465E-03
  -5.958044E-04   1.211485E-02
   7.747883E-03   9.225772E-03
   1.190335E-02   1.450866E-03
   9.674473E-03  -7.063263E-03
   2.265610E-03  -1.178745E-02
  -6.367157E-03  -1.021995E-02
  -1.162716E-02  -3.212344E-03
  -1.072418E-02   5.491706E-03
  -4.154710E-03   1.125530E-02
   4.569993E-03   1.101778E-02
   1.079930E-02   4.920037E-03
   1.122087E-02  -3.777379E-03
   5.621051E-03  -1.043614E-02
  -3.007493E-03  -1.151180E-02
  -1.006475E-02  -6.438448E-03
  -1.179472E-02   2.075542E-03
  -7.282850E-03   9.494793E-03
   1.062331E-03   1.187362E-02
