 This RAW file was created using the MATLAB spectral
 simulation program developed by Robin Simpson
 and Jamie Near, FMRIB 2010

 Experiment Name : semi-LASER78_shapedSim
 Investigator    : jnear
 Comment : Simulated LCModel basis set for shaped semi-LASER experiment with echo time 78 ms

 User defined parameters:

 Sweep Width = 5998.8002 Hz
 Vector Size = 2048 points
 Apodization = 2.0000 Hz
 B0 Field    = 6.9800 T

 $NMID ID=NAA
 FMTDAT=(2E16.6)
 VOLUME=1.00000
 TRAMP=1.00000
 $END
   3.071773E-01   8.022306E-02
   3.032812E-01   9.630905E-02
   2.915262E-01   1.047721E-01
   2.672854E-01   1.108193E-01
   2.329944E-01   1.225277E-01
   1.962715E-01   1.419352E-01
   1.614442E-01   1.659403E-01
   1.304630E-01   1.927203E-01
   1.070413E-01   2.190599E-01
   9.115871E-02   2.372525E-01
   7.540325E-02   2.429178E-01
   5.337469E-02   2.398068E-01
   2.466451E-02   2.324793E-01
  -1.100612E-02   2.229861E-01
  -5.413012E-02   2.163651E-01
  -9.869749E-02   2.182104E-01
  -1.358786E-01   2.260410E-01
  -1.636876E-01   2.326122E-01
  -1.844835E-01   2.347263E-01
  -1.985290E-01   2.304868E-01
  -2.086474E-01   2.153042E-01
  -2.230593E-01   1.893483E-01
  -2.458073E-01   1.607520E-01
  -2.727246E-01   1.357034E-01
  -3.000683E-01   1.146391E-01
  -3.263086E-01   9.932395E-02
  -3.454691E-01   9.146727E-02
  -3.513145E-01   8.499090E-02
  -3.466739E-01   7.143213E-02
  -3.383812E-01   4.985766E-02
  -3.286385E-01   2.248680E-02
  -3.197852E-01  -1.127197E-02
  -3.176366E-01  -4.810263E-02
  -3.221127E-01  -7.873599E-02
  -3.250316E-01  -9.914903E-02
  -3.213118E-01  -1.132680E-01
  -3.110689E-01  -1.232818E-01
  -2.916124E-01  -1.298502E-01
  -2.609288E-01  -1.395620E-01
  -2.259717E-01  -1.587025E-01
  -1.953055E-01  -1.837637E-01
  -1.695052E-01  -2.084317E-01
  -1.475213E-01  -2.314692E-01
  -1.315959E-01  -2.498913E-01
  -1.185484E-01  -2.568201E-01
  -9.903673E-02  -2.525933E-01
  -7.009680E-02  -2.454596E-01
  -3.602174E-02  -2.394278E-01
   1.988121E-03  -2.343191E-01
   4.326042E-02  -2.342483E-01
   7.989046E-02  -2.417670E-01
   1.052060E-01  -2.495519E-01
   1.228448E-01  -2.498118E-01
   1.378177E-01  -2.429676E-01
   1.499764E-01  -2.293465E-01
   1.627549E-01  -2.058707E-01
   1.835959E-01  -1.765241E-01
   2.114373E-01  -1.512861E-01
   2.379800E-01  -1.326496E-01
   2.603276E-01  -1.169525E-01
   2.784719E-01  -1.048798E-01
   2.868765E-01  -9.631280E-02
   2.828362E-01  -8.284185E-02
   2.741974E-01  -5.849680E-02
   2.679402E-01  -2.778767E-02
   2.630142E-01   5.066852E-03
   2.603743E-01   4.077119E-02
   2.641746E-01   7.460350E-02
   2.699441E-01   9.817754E-02
   2.678710E-01   1.128904E-01
   2.566969E-01   1.263380E-01
   2.398925E-01   1.397414E-01
   2.155675E-01   1.531042E-01
   1.842654E-01   1.729720E-01
   1.555503E-01   2.016148E-01
   1.351310E-01   2.305361E-01
   1.184723E-01   2.537077E-01
   1.031308E-01   2.726486E-01
   9.098360E-02   2.850045E-01
   7.670648E-02   2.858884E-01
   5.206471E-02   2.805285E-01
   1.969229E-02   2.784732E-01
  -1.304662E-02   2.799064E-01
  -4.594907E-02   2.821098E-01
  -7.814627E-02   2.885257E-01
  -1.016132E-01   2.984120E-01
  -1.142355E-01   3.017623E-01
  -1.244677E-01   2.940217E-01
  -1.366461E-01   2.802425E-01
  -1.485052E-01   2.615883E-01
  -1.635147E-01   2.359087E-01
  -1.867085E-01   2.098821E-01
  -2.118372E-01   1.919805E-01
  -2.298130E-01   1.790263E-01
  -2.414988E-01   1.649481E-01
  -2.486263E-01   1.513208E-01
  -2.463799E-01   1.369892E-01
  -2.360431E-01   1.134246E-01
  -2.280103E-01   7.967037E-02
  -2.256804E-01   4.463190E-02
  -2.240121E-01   1.143590E-02
  -2.236315E-01  -2.206709E-02
  -2.271656E-01  -5.063864E-02
  -2.271058E-01  -6.882708E-02
  -2.156473E-01  -8.334423E-02
  -1.970900E-01  -1.019994E-01
  -1.765677E-01  -1.225012E-01
  -1.515071E-01  -1.439680E-01
  -1.242502E-01  -1.721013E-01
  -1.043055E-01  -2.046461E-01
  -9.201546E-02  -2.309289E-01
  -7.904859E-02  -2.487904E-01
  -6.437390E-02  -2.629795E-01
  -5.052578E-02  -2.710784E-01
  -3.127821E-02  -2.703886E-01
  -1.833540E-03  -2.693664E-01
   2.998041E-02  -2.750639E-01
   5.722250E-02  -2.824549E-01
   8.280594E-02  -2.879436E-01
   1.059363E-01  -2.953170E-01
   1.197066E-01  -3.013419E-01
   1.269842E-01  -2.963546E-01
   1.379438E-01  -2.813640E-01
   1.529665E-01  -2.644789E-01
   1.674823E-01  -2.452725E-01
   1.853186E-01  -2.218057E-01
   2.086532E-01  -2.018953E-01
   2.280004E-01  -1.900634E-01
   2.372454E-01  -1.782107E-01
   2.419506E-01  -1.612404E-01
   2.440277E-01  -1.432254E-01
   2.388510E-01  -1.223060E-01
   2.308313E-01  -9.144681E-02
   2.296547E-01  -5.498432E-02
   2.331218E-01  -2.297888E-02
   2.339440E-01   5.345628E-03
   2.343316E-01   3.350589E-02
   2.357934E-01   5.584431E-02
   2.296240E-01   7.049967E-02
   2.124706E-01   8.731459E-02
   1.931377E-01   1.107425E-01
   1.753214E-01   1.344810E-01
   1.546984E-01   1.580753E-01
   1.349334E-01   1.863955E-01
   1.235098E-01   2.136025E-01
   1.152773E-01   2.302422E-01
   1.013528E-01   2.396896E-01
   8.438173E-02   2.481509E-01
   6.732754E-02   2.518341E-01
   4.365532E-02   2.500438E-01
   1.281339E-02   2.523000E-01
  -1.457431E-02   2.607556E-01
  -3.529681E-02   2.664576E-01
  -5.553562E-02   2.676361E-01
  -7.364945E-02   2.690240E-01
  -8.431511E-02   2.656503E-01
  -9.426502E-02   2.505008E-01
  -1.118853E-01   2.300813E-01
  -1.322771E-01   2.123709E-01
  -1.502498E-01   1.936019E-01
  -1.707108E-01   1.722594E-01
  -1.931147E-01   1.561805E-01
  -2.072866E-01   1.451014E-01
  -2.123888E-01   1.286516E-01
  -2.171979E-01   1.057423E-01
  -2.215182E-01   8.285649E-02
  -2.206278E-01   5.696670E-02
  -2.209149E-01   2.333199E-02
  -2.288058E-01  -9.843794E-03
  -2.368602E-01  -3.493280E-02
  -2.386618E-01  -5.758078E-02
  -2.393097E-01  -8.112121E-02
  -2.391199E-01  -9.923881E-02
  -2.297627E-01  -1.133970E-01
  -2.130197E-01  -1.336441E-01
  -1.992639E-01  -1.589906E-01
  -1.880331E-01  -1.808233E-01
  -1.735313E-01  -2.010022E-01
  -1.607763E-01  -2.236659E-01
  -1.542737E-01  -2.409569E-01
  -1.451993E-01  -2.472592E-01
  -1.276760E-01  -2.507249E-01
  -1.085719E-01  -2.559991E-01
  -8.987281E-02  -2.570298E-01
  -6.487873E-02  -2.550187E-01
  -3.678554E-02  -2.586526E-01
  -1.582300E-02  -2.648053E-01
   2.398062E-04  -2.637587E-01
   1.894410E-02  -2.578667E-01
   3.633576E-02  -2.523424E-01
   4.870247E-02  -2.408315E-01
   6.472282E-02  -2.199364E-01
   8.849038E-02  -1.994725E-01
   1.110081E-01  -1.839370E-01
   1.292583E-01  -1.661464E-01
   1.496635E-01  -1.462215E-01
   1.692422E-01  -1.315291E-01
   1.792320E-01  -1.177541E-01
   1.840935E-01  -9.554400E-02
   1.925817E-01  -6.904249E-02
   2.006423E-01  -4.512058E-02
   2.040727E-01  -1.862007E-02
   2.104976E-01   1.276951E-02
   2.221512E-01   3.917626E-02
   2.288018E-01   5.767910E-02
   2.278843E-01   7.726968E-02
   2.270181E-01   9.869847E-02
   2.244255E-01   1.150192E-01
   2.129917E-01   1.305131E-01
   1.986797E-01   1.531833E-01
   1.901722E-01   1.769084E-01
   1.821209E-01   1.938998E-01
   1.692276E-01   2.094794E-01
   1.582483E-01   2.264034E-01
   1.505235E-01   2.359664E-01
   1.360105E-01   2.372614E-01
   1.138455E-01   2.405986E-01
   9.338331E-02   2.465382E-01
   7.375071E-02   2.474614E-01
   4.849607E-02   2.469266E-01
   2.374517E-02   2.516389E-01
   6.968230E-03   2.543933E-01
  -8.890120E-03   2.478735E-01
  -2.980375E-02   2.388426E-01
  -4.891372E-02   2.312277E-01
  -6.463981E-02   2.174669E-01
  -8.599376E-02   1.978889E-01
  -1.120381E-01   1.828993E-01
  -1.324298E-01   1.717992E-01
  -1.483821E-01   1.558458E-01
  -1.669506E-01   1.381347E-01
  -1.827543E-01   1.249175E-01
  -1.897672E-01   1.090410E-01
  -1.962206E-01   8.456969E-02
  -2.078100E-01   5.993082E-02
  -2.167296E-01   3.970236E-02
  -2.207801E-01   1.645837E-02
  -2.281925E-01  -9.412472E-03
  -2.371260E-01  -2.834641E-02
  -2.375027E-01  -4.260075E-02
  -2.319534E-01  -6.163608E-02
  -2.286668E-01  -8.202769E-02
  -2.229282E-01  -9.717840E-02
  -2.095555E-01  -1.136898E-01
  -1.970728E-01  -1.362011E-01
  -1.901881E-01  -1.553626E-01
  -1.799944E-01  -1.670325E-01
  -1.640952E-01  -1.794957E-01
  -1.507416E-01  -1.929351E-01
  -1.381326E-01  -1.987438E-01
  -1.171951E-01  -2.002868E-01
  -9.215626E-02  -2.069732E-01
  -7.191286E-02  -2.144099E-01
  -5.164835E-02  -2.154303E-01
  -2.619379E-02  -2.163289E-01
  -3.723714E-03  -2.211330E-01
   1.221851E-02  -2.205120E-01
   3.127034E-02  -2.115558E-01
   5.536828E-02  -2.037345E-01
   7.564084E-02  -1.976395E-01
   9.351712E-02  -1.850932E-01
   1.171686E-01  -1.698383E-01
   1.413931E-01  -1.606148E-01
   1.575159E-01  -1.518878E-01
   1.713041E-01  -1.362377E-01
   1.884454E-01  -1.202554E-01
   2.012537E-01  -1.080424E-01
   2.070656E-01  -9.082807E-02
   2.156871E-01  -6.704176E-02
   2.281295E-01  -4.692385E-02
   2.348187E-01  -3.076645E-02
   2.371383E-01  -1.010365E-02
   2.430221E-01   1.148291E-02
   2.471669E-01   2.608830E-02
   2.418890E-01   4.007696E-02
   2.342514E-01   6.053277E-02
   2.303430E-01   8.005380E-02
   2.225552E-01   9.422578E-02
   2.085615E-01   1.113870E-01
   1.978927E-01   1.323159E-01
   1.905780E-01   1.468162E-01
   1.767414E-01   1.556113E-01
   1.583530E-01   1.678212E-01
   1.437290E-01   1.800215E-01
   1.278995E-01   1.848151E-01
   1.042231E-01   1.888671E-01
   8.064064E-02   1.985074E-01
   6.297611E-02   2.054979E-01
   4.310077E-02   2.054779E-01
   1.866069E-02   2.069521E-01
  -1.140391E-03   2.105959E-01
  -1.694561E-02   2.068140E-01
  -3.843159E-02   1.975092E-01
  -6.268596E-02   1.922046E-01
  -8.098838E-02   1.871974E-01
  -9.827117E-02   1.751747E-01
  -1.207043E-01   1.628296E-01
  -1.401936E-01   1.557891E-01
  -1.517686E-01   1.453959E-01
  -1.643121E-01   1.278967E-01
  -1.801366E-01   1.123911E-01
  -1.901340E-01   9.965781E-02
  -1.953289E-01   8.063128E-02
  -2.050344E-01   5.801203E-02
  -2.155624E-01   4.120601E-02
  -2.182521E-01   2.585291E-02
