 This RAW file was created using the MATLAB spectral
 simulation program developed by Robin Simpson
 and Jamie Near, FMRIB 2010

 Experiment Name : semi-LASER78_shapedSim
 Investigator    : jnear
 Comment : Simulated LCModel basis set for shaped semi-LASER experiment with echo time 78 ms

 User defined parameters:

 Sweep Width = 5998.8002 Hz
 Vector Size = 2048 points
 Apodization = 2.0000 Hz
 B0 Field    = 6.9800 T

 $NMID ID=Cr
 FMTDAT=(2E16.6)
 VOLUME=1.00000
 TRAMP=1.00000
 $END
   2.989281E+00  -1.511156E-01
   2.739735E+00  -1.060019E+00
   2.186438E+00  -1.768721E+00
   1.482501E+00  -2.190592E+00
   7.603532E-01  -2.345395E+00
   8.870083E-02  -2.277001E+00
  -4.721916E-01  -2.010860E+00
  -8.387863E-01  -1.606320E+00
  -9.707541E-01  -1.195140E+00
  -9.403011E-01  -9.112073E-01
  -8.869749E-01  -7.876575E-01
  -9.051371E-01  -7.574435E-01
  -1.007801E+00  -7.460261E-01
  -1.190035E+00  -7.178929E-01
  -1.467027E+00  -6.266929E-01
  -1.816366E+00  -3.795045E-01
  -2.121702E+00   9.535286E-02
  -2.228323E+00   7.573622E-01
  -2.055806E+00   1.470308E+00
  -1.625706E+00   2.105489E+00
  -9.892067E-01   2.591359E+00
  -1.828612E-01   2.864844E+00
   7.212246E-01   2.837139E+00
   1.569612E+00   2.458416E+00
   2.190271E+00   1.797694E+00
   2.502372E+00   1.013223E+00
   2.533946E+00   2.431236E-01
   2.341064E+00  -4.424396E-01
   1.959780E+00  -9.891637E-01
   1.452853E+00  -1.322306E+00
   9.504194E-01  -1.406253E+00
   5.862295E-01  -1.313588E+00
   3.962779E-01  -1.185188E+00
   3.149325E-01  -1.119444E+00
   2.657249E-01  -1.131661E+00
   2.126661E-01  -1.214699E+00
   1.148283E-01  -1.381660E+00
  -1.126355E-01  -1.614399E+00
  -5.376812E-01  -1.806342E+00
  -1.121867E+00  -1.811858E+00
  -1.732243E+00  -1.556519E+00
  -2.242507E+00  -1.068534E+00
  -2.586942E+00  -4.083930E-01
  -2.715238E+00   3.804414E-01
  -2.554131E+00   1.227345E+00
  -2.064722E+00   1.987359E+00
  -1.320940E+00   2.497414E+00
  -4.844834E-01   2.683711E+00
   3.026827E-01   2.583028E+00
   9.704918E-01   2.263609E+00
   1.471929E+00   1.771997E+00
   1.742461E+00   1.174145E+00
   1.752663E+00   5.979331E-01
   1.576648E+00   1.758864E-01
   1.357291E+00  -5.428855E-02
   1.197513E+00  -1.577625E-01
   1.115545E+00  -2.139438E-01
   1.102586E+00  -2.607140E-01
   1.169692E+00  -3.352858E-01
   1.302472E+00  -5.159962E-01
   1.403400E+00  -8.683510E-01
   1.335107E+00  -1.357218E+00
   1.027951E+00  -1.854211E+00
   5.149806E-01  -2.236402E+00
  -1.361220E-01  -2.444129E+00
  -8.768847E-01  -2.439384E+00
  -1.639717E+00  -2.163679E+00
  -2.289585E+00  -1.588106E+00
  -2.673726E+00  -7.901156E-01
  -2.726228E+00   6.703222E-02
  -2.492694E+00   8.395030E-01
  -2.053089E+00   1.458930E+00
  -1.463890E+00   1.886846E+00
  -7.936352E-01   2.070168E+00
  -1.669801E-01   1.986892E+00
   2.861336E-01   1.713524E+00
   5.276567E-01   1.395265E+00
   6.234023E-01   1.139673E+00
   6.567743E-01   9.681022E-01
   6.689024E-01   8.702234E-01
   6.948512E-01   8.547033E-01
   8.078037E-01   9.100369E-01
   1.071799E+00   9.466982E-01
   1.455872E+00   8.345140E-01
   1.837068E+00   5.072828E-01
   2.096373E+00   1.052123E-03
   2.179979E+00  -6.113574E-01
   2.061308E+00  -1.278213E+00
   1.695517E+00  -1.936267E+00
   1.062440E+00  -2.461508E+00
   2.414711E-01  -2.712430E+00
  -6.045521E-01  -2.631448E+00
  -1.331912E+00  -2.272660E+00
  -1.875470E+00  -1.726883E+00
  -2.206401E+00  -1.059579E+00
  -2.284045E+00  -3.409247E-01
  -2.094727E+00   3.088659E-01
  -1.717859E+00   7.639684E-01
  -1.300923E+00   9.874753E-01
  -9.558134E-01   1.046983E+00
  -7.067927E-01   1.030880E+00
  -5.417521E-01   9.847360E-01
  -4.663013E-01   9.427966E-01
  -4.706811E-01   9.741585E-01
  -4.720942E-01   1.142028E+00
  -3.463584E-01   1.420057E+00
  -2.934321E-02   1.691147E+00
   4.416623E-01   1.840313E+00
   9.905818E-01   1.819023E+00
   1.563932E+00   1.610913E+00
   2.103789E+00   1.183358E+00
   2.497871E+00   5.234802E-01
   2.616439E+00  -2.890463E-01
   2.410264E+00  -1.093771E+00
   1.941205E+00  -1.748981E+00
   1.309695E+00  -2.194126E+00
   5.889045E-01  -2.410847E+00
  -1.505555E-01  -2.371551E+00
  -7.942826E-01  -2.071421E+00
  -1.222174E+00  -1.592905E+00
  -1.399952E+00  -1.085342E+00
  -1.398064E+00  -6.642707E-01
  -1.310712E+00  -3.562769E-01
  -1.188835E+00  -1.469031E-01
  -1.066883E+00  -3.779090E-02
  -1.010590E+00  -1.961009E-02
  -1.082587E+00  -1.490719E-02
  -1.261173E+00   9.574372E-02
  -1.435111E+00   3.756897E-01
  -1.493185E+00   7.879699E-01
  -1.391237E+00   1.254876E+00
  -1.121648E+00   1.722370E+00
  -6.623838E-01   2.138464E+00
  -6.311172E-03   2.402880E+00
   7.682638E-01   2.397732E+00
   1.505116E+00   2.081764E+00
   2.066227E+00   1.523525E+00
   2.396729E+00   8.315193E-01
   2.489237E+00   8.510375E-02
   2.329469E+00  -6.460366E-01
   1.921600E+00  -1.254733E+00
   1.350863E+00  -1.628172E+00
   7.676655E-01  -1.736087E+00
   2.901653E-01  -1.652682E+00
  -5.362802E-02  -1.478542E+00
  -2.813234E-01  -1.270593E+00
  -3.963061E-01  -1.064146E+00
  -4.088651E-01  -9.219311E-01
  -3.925012E-01  -9.058800E-01
  -4.630421E-01  -9.985792E-01
  -6.841609E-01  -1.094285E+00
  -1.020523E+00  -1.084970E+00
  -1.394086E+00  -9.297244E-01
  -1.751089E+00  -6.280364E-01
  -2.045697E+00  -1.667565E-01
  -2.189495E+00   4.570461E-01
  -2.076117E+00   1.167954E+00
  -1.671553E+00   1.815584E+00
  -1.049683E+00   2.267018E+00
  -3.253285E-01   2.473847E+00
   4.176433E-01   2.439786E+00
   1.111885E+00   2.163717E+00
   1.658832E+00   1.658531E+00
   1.954384E+00   1.011637E+00
   1.973476E+00   3.734202E-01
   1.794719E+00  -1.366494E-01
   1.525345E+00  -4.902538E-01
   1.228513E+00  -7.091000E-01
   9.406796E-01  -8.027039E-01
   7.215571E-01  -7.836675E-01
   6.319034E-01  -7.228327E-01
   6.578915E-01  -7.334185E-01
   6.985949E-01  -8.802750E-01
   6.483716E-01  -1.130660E+00
   4.682869E-01  -1.407123E+00
   1.632501E-01  -1.656634E+00
  -2.726960E-01  -1.839337E+00
  -8.397078E-01  -1.878142E+00
  -1.466562E+00  -1.677518E+00
  -2.010038E+00  -1.209689E+00
  -2.343381E+00  -5.523155E-01
  -2.425046E+00   1.753427E-01
  -2.269599E+00   8.866247E-01
  -1.888532E+00   1.517886E+00
  -1.302812E+00   1.980384E+00
  -6.011098E-01   2.179929E+00
   6.755142E-02   2.097571E+00
   5.838754E-01   1.816673E+00
   9.204812E-01   1.451029E+00
   1.104161E+00   1.069901E+00
   1.151609E+00   7.107963E-01
   1.078963E+00   4.300632E-01
   9.555127E-01   2.865084E-01
   8.926132E-01   2.689194E-01
   9.568292E-01   2.802913E-01
   1.118606E+00   2.164244E-01
   1.301625E+00   3.905686E-02
   1.453669E+00  -2.431240E-01
   1.540329E+00  -6.304559E-01
   1.494967E+00  -1.121551E+00
   1.231914E+00  -1.650400E+00
   7.284137E-01  -2.081906E+00
   6.426010E-02  -2.296164E+00
  -6.387406E-01  -2.258528E+00
  -1.292797E+00  -1.993782E+00
  -1.839188E+00  -1.525120E+00
  -2.199976E+00  -8.806241E-01
  -2.291775E+00  -1.490752E-01
  -2.102340E+00   5.233548E-01
  -1.719791E+00   1.019125E+00
  -1.264042E+00   1.313063E+00
  -8.099561E-01   1.437974E+00
  -3.956596E-01   1.418633E+00
  -7.350482E-02   1.275715E+00
   1.006609E-01   1.077808E+00
   1.365930E-01   9.348525E-01
   1.283955E-01   9.153162E-01
   1.798038E-01   9.930489E-01
   3.296480E-01   1.093030E+00
   5.669623E-01   1.163597E+00
   8.878355E-01   1.174953E+00
   1.290299E+00   1.069776E+00
   1.714235E+00   7.710810E-01
   2.033250E+00   2.598234E-01
   2.134591E+00  -3.837210E-01
   1.990178E+00  -1.037010E+00
   1.634047E+00  -1.612632E+00
   1.099878E+00  -2.057787E+00
   4.216664E-01  -2.306019E+00
  -3.129989E-01  -2.285299E+00
  -9.623507E-01  -1.990313E+00
  -1.412176E+00  -1.513598E+00
  -1.640711E+00  -9.804000E-01
  -1.687559E+00  -4.703598E-01
  -1.586242E+00  -2.150263E-02
  -1.362697E+00   3.186629E-01
  -1.085355E+00   4.984009E-01
  -8.628587E-01   5.272576E-01
  -7.654218E-01   4.974855E-01
  -7.701492E-01   5.132737E-01
  -8.031484E-01   6.151084E-01
  -8.127680E-01   7.910222E-01
  -7.727632E-01   1.033956E+00
  -6.338097E-01   1.342009E+00
  -3.263265E-01   1.661270E+00
   1.663367E-01   1.874241E+00
   7.649740E-01   1.875248E+00
   1.347945E+00   1.642122E+00
   1.829501E+00   1.216914E+00
   2.163469E+00   6.423371E-01
   2.295215E+00  -4.305460E-02
   2.164235E+00  -7.542292E-01
   1.772022E+00  -1.355341E+00
   1.214860E+00  -1.736974E+00
   6.222395E-01  -1.881820E+00
   7.747962E-02  -1.836833E+00
  -3.824251E-01  -1.644668E+00
  -7.157868E-01  -1.336922E+00
  -8.761872E-01  -9.820758E-01
  -8.742055E-01  -6.872722E-01
  -8.012259E-01  -5.239765E-01
  -7.626632E-01  -4.720778E-01
  -8.015196E-01  -4.583605E-01
  -9.058186E-01  -4.304322E-01
  -1.066143E+00  -3.643931E-01
  -1.280967E+00  -2.175192E-01
  -1.502542E+00   7.365619E-02
  -1.622086E+00   5.246215E-01
  -1.540607E+00   1.058610E+00
  -1.240929E+00   1.556273E+00
  -7.716684E-01   1.934517E+00
  -1.829859E-01   2.154176E+00
   4.834299E-01   2.172412E+00
   1.146432E+00   1.940049E+00
   1.677487E+00   1.464921E+00
   1.973261E+00   8.461041E-01
   2.021709E+00   2.160044E-01
   1.877422E+00  -3.396745E-01
   1.592242E+00  -7.860268E-01
   1.203473E+00  -1.088202E+00
   7.795334E-01  -1.206266E+00
   4.255502E-01  -1.152977E+00
   2.134601E-01  -1.019684E+00
   1.252020E-01  -9.135831E-01
   8.757915E-02  -8.807685E-01
   4.657939E-02  -9.099243E-01
  -2.060930E-02  -9.897301E-01
  -1.514978E-01  -1.119015E+00
  -4.046478E-01  -1.255802E+00
  -7.954476E-01  -1.299528E+00
  -1.250687E+00  -1.157213E+00
  -1.654395E+00  -8.155671E-01
  -1.926800E+00  -3.282133E-01
  -2.035783E+00   2.488825E-01
  -1.949913E+00   8.722910E-01
  -1.630804E+00   1.465954E+00
  -1.091870E+00   1.909839E+00
  -4.337980E-01   2.107718E+00
   2.095802E-01   2.053342E+00
   7.515826E-01   1.808901E+00
   1.160488E+00   1.435144E+00
   1.409251E+00   9.747941E-01
   1.465460E+00   4.957798E-01
   1.345021E+00   1.004430E-01
   1.139865E+00  -1.398177E-01
   9.592582E-01  -2.419366E-01
