 This RAW file was created using the MATLAB spectral
 simulation program developed by Robin Simpson
 and Jamie Near, FMRIB 2010

 Experiment Name : semi-LASER78_shapedSim
 Investigator    : jnear
 Comment : Simulated LCModel basis set for shaped semi-LASER experiment with echo time 78 ms

 User defined parameters:

 Sweep Width = 5998.8002 Hz
 Vector Size = 2048 points
 Apodization = 2.0000 Hz
 B0 Field    = 6.9800 T

 $NMID ID=GABA
 FMTDAT=(2E16.6)
 VOLUME=1.00000
 TRAMP=1.00000
 $END
   4.979829E-01   5.619052E-02
   5.044487E-01   2.214432E-02
   4.990566E-01  -1.123623E-02
   4.826224E-01  -4.173882E-02
   4.563378E-01  -6.766220E-02
   4.215682E-01  -8.758437E-02
   3.800154E-01  -1.002765E-01
   3.337717E-01  -1.049740E-01
   2.849762E-01  -1.015776E-01
   2.354523E-01  -9.041011E-02
   1.867857E-01  -7.182604E-02
   1.406667E-01  -4.620457E-02
   9.893735E-02  -1.428212E-02
   6.325876E-02   2.271427E-02
   3.488947E-02   6.332635E-02
   1.485394E-02   1.060823E-01
   4.123827E-03   1.493198E-01
   3.382227E-03   1.909237E-01
   1.258566E-02   2.284847E-01
   3.087865E-02   2.597939E-01
   5.691844E-02   2.831194E-01
   8.910740E-02   2.970873E-01
   1.254710E-01   3.006047E-01
   1.635636E-01   2.931509E-01
   2.008055E-01   2.751073E-01
   2.350058E-01   2.476407E-01
   2.645230E-01   2.122526E-01
   2.880351E-01   1.705514E-01
   3.044270E-01   1.243952E-01
   3.130332E-01   7.595965E-02
   3.138414E-01   2.741908E-02
   3.072673E-01  -1.941670E-02
   2.937639E-01  -6.304313E-02
   2.737895E-01  -1.019233E-01
   2.481271E-01  -1.344184E-01
   2.180300E-01  -1.591041E-01
   1.849756E-01  -1.750018E-01
   1.504303E-01  -1.814262E-01
   1.159972E-01  -1.777896E-01
   8.367167E-02  -1.638030E-01
   5.570087E-02  -1.398926E-01
   3.410070E-02  -1.072882E-01
   2.036618E-02  -6.769435E-02
   1.558280E-02  -2.302766E-02
   2.052793E-02   2.449443E-02
   3.541775E-02   7.226222E-02
   5.959243E-02   1.175912E-01
   9.162704E-02   1.582392E-01
   1.297854E-01   1.925833E-01
   1.722772E-01   2.193948E-01
   2.171374E-01   2.377029E-01
   2.621519E-01   2.470096E-01
   3.051565E-01   2.474911E-01
   3.444030E-01   2.397880E-01
   3.785227E-01   2.246091E-01
   4.061963E-01   2.026704E-01
   4.260643E-01   1.749920E-01
   4.370250E-01   1.430482E-01
   4.384721E-01   1.085261E-01
   4.301531E-01   7.306977E-02
   4.119579E-01   3.839258E-02
   3.840787E-01   6.520333E-03
   3.473995E-01  -2.033346E-02
   3.035808E-01  -4.024062E-02
   2.547238E-01  -5.185864E-02
   2.030749E-01  -5.432615E-02
   1.510788E-01  -4.713675E-02
   1.014652E-01  -3.035144E-02
   5.694945E-02  -4.892899E-03
   1.972340E-02   2.756275E-02
  -8.733752E-03   6.504619E-02
  -2.743392E-02   1.055818E-01
  -3.571722E-02   1.470936E-01
  -3.343388E-02   1.873265E-01
  -2.113716E-02   2.241273E-01
   1.177008E-04   2.558128E-01
   2.917896E-02   2.811548E-01
   6.489330E-02   2.990574E-01
   1.058369E-01   3.084485E-01
   1.501665E-01   3.085556E-01
   1.958586E-01   2.991472E-01
   2.409876E-01   2.804004E-01
   2.836495E-01   2.526716E-01
   3.217331E-01   2.166150E-01
   3.530301E-01   1.735414E-01
   3.756959E-01   1.254963E-01
   3.885580E-01   7.491606E-02
   3.910168E-01   2.429984E-02
   3.828936E-01  -2.377331E-02
   3.645997E-01  -6.656561E-02
   3.374057E-01  -1.014606E-01
   3.033316E-01  -1.264626E-01
   2.646770E-01  -1.403949E-01
   2.237020E-01  -1.426797E-01
   1.826908E-01  -1.331461E-01
   1.440290E-01  -1.121741E-01
   1.099378E-01  -8.087293E-02
   8.210345E-02  -4.088134E-02
   6.167036E-02   6.051489E-03
   4.955443E-02   5.820049E-02
   4.657268E-02   1.136305E-01
   5.319108E-02   1.700558E-01
   6.928584E-02   2.250809E-01
   9.427149E-02   2.765029E-01
   1.273516E-01   3.222727E-01
   1.674460E-01   3.602808E-01
   2.128688E-01   3.884512E-01
   2.612612E-01   4.051850E-01
   3.099449E-01   4.096700E-01
   3.562815E-01   4.017785E-01
   3.976902E-01   3.818834E-01
   4.315741E-01   3.509758E-01
   4.555768E-01   3.108990E-01
   4.680646E-01   2.642282E-01
   4.683252E-01   2.137860E-01
   4.563409E-01   1.622862E-01
   4.325611E-01   1.123635E-01
   3.980005E-01   6.664619E-02
   3.543929E-01   2.750497E-02
   3.039876E-01  -3.317205E-03
   2.491116E-01  -2.473018E-02
   1.919943E-01  -3.598868E-02
   1.349654E-01  -3.653868E-02
   8.058668E-02  -2.623962E-02
   3.141366E-02  -5.593852E-03
  -1.032400E-02   2.438214E-02
  -4.271220E-02   6.243242E-02
  -6.394475E-02   1.070369E-01
  -7.239250E-02   1.561282E-01
  -6.701775E-02   2.070361E-01
  -4.767255E-02   2.568496E-01
  -1.498544E-02   3.028027E-01
   2.986247E-02   3.423230E-01
   8.507801E-02   3.729602E-01
   1.480630E-01   3.926158E-01
   2.155500E-01   4.000015E-01
   2.841032E-01   3.948334E-01
   3.505102E-01   3.775955E-01
   4.117865E-01   3.492750E-01
   4.651070E-01   3.114123E-01
   5.080397E-01   2.662286E-01
   5.389111E-01   2.164166E-01
   5.568436E-01   1.646877E-01
   5.614487E-01   1.135581E-01
   5.526444E-01   6.551381E-02
   5.308407E-01   2.313773E-02
   4.971518E-01  -1.112120E-02
   4.532594E-01  -3.527551E-02
   4.011086E-01  -4.780920E-02
   3.428805E-01  -4.746900E-02
   2.812299E-01  -3.330009E-02
   2.193245E-01  -5.021796E-03
   1.604734E-01   3.669551E-02
   1.077142E-01   9.036330E-02
   6.373411E-02   1.539441E-01
   3.094052E-02   2.248551E-01
   1.125901E-02   2.998212E-01
   5.703039E-03   3.750286E-01
   1.418892E-02   4.466400E-01
   3.578537E-02   5.112180E-01
   6.901729E-02   5.657576E-01
   1.118666E-01   6.076147E-01
   1.616742E-01   6.347131E-01
   2.153563E-01   6.458908E-01
   2.698721E-01   6.409355E-01
   3.224719E-01   6.202653E-01
   3.705635E-01   5.847033E-01
   4.115863E-01   5.356131E-01
   4.432284E-01   4.750780E-01
   4.637541E-01   4.057466E-01
   4.720262E-01   3.304917E-01
   4.672897E-01   2.523246E-01
   4.491682E-01   1.745862E-01
   4.179952E-01   1.009673E-01
   3.750643E-01   3.513135E-02
   3.224755E-01  -1.971826E-02
   2.628235E-01  -6.093896E-02
   1.991358E-01  -8.637307E-02
   1.349798E-01  -9.451170E-02
   7.429996E-02  -8.488690E-02
   2.089995E-02  -5.823637E-02
  -2.199663E-02  -1.623261E-02
  -5.179384E-02   3.886662E-02
  -6.643517E-02   1.042759E-01
  -6.457013E-02   1.766200E-01
  -4.586751E-02   2.521615E-01
  -1.103610E-02   3.272837E-01
   3.851724E-02   3.987737E-01
   1.009609E-01   4.637182E-01
   1.739608E-01   5.193797E-01
   2.545359E-01   5.633971E-01
   3.392333E-01   5.941100E-01
   4.245009E-01   6.105894E-01
   5.068250E-01   6.124124E-01
   5.825800E-01   5.996204E-01
   6.480163E-01   5.730036E-01
   6.996319E-01   5.343249E-01
   7.346091E-01   4.861475E-01
   7.509225E-01   4.314848E-01
   7.472432E-01   3.736859E-01
   7.230506E-01   3.165062E-01
   6.789705E-01   2.639413E-01
   6.169048E-01   2.197128E-01
   5.397268E-01   1.868209E-01
   4.508771E-01   1.674886E-01
   3.542402E-01   1.632703E-01
   2.541633E-01   1.749314E-01
   1.552127E-01   2.021723E-01
   6.167375E-02   2.436270E-01
  -2.276358E-02   2.972271E-01
  -9.492922E-02   3.605224E-01
  -1.520458E-01   4.306560E-01
  -1.919068E-01   5.042509E-01
  -2.131870E-01   5.775968E-01
  -2.154714E-01   6.470433E-01
  -1.990124E-01   7.091736E-01
  -1.646384E-01   7.606799E-01
  -1.139830E-01   7.983439E-01
  -4.967145E-02   8.193836E-01
   2.487889E-02   8.218746E-01
   1.058511E-01   8.048475E-01
   1.892002E-01   7.681560E-01
   2.706217E-01   7.125238E-01
   3.457241E-01   6.398165E-01
   4.105369E-01   5.531275E-01
   4.619645E-01   4.564354E-01
   4.978476E-01   3.541460E-01
   5.168326E-01   2.509081E-01
   5.184466E-01   1.515959E-01
   5.033333E-01   6.105907E-02
   4.732358E-01  -1.637738E-02
   4.306130E-01  -7.724234E-02
   3.782787E-01  -1.188513E-01
   3.193785E-01  -1.391576E-01
   2.574780E-01  -1.368872E-01
   1.963735E-01  -1.118141E-01
   1.396878E-01  -6.476684E-02
   9.067074E-02   2.648943E-03
   5.230690E-02   8.820516E-02
   2.735014E-02   1.888912E-01
   1.800863E-02   3.007752E-01
   2.554582E-02   4.192371E-01
   5.019833E-02   5.394063E-01
   9.134292E-02   6.563889E-01
   1.475120E-01   7.652732E-01
   2.161824E-01   8.613047E-01
   2.937271E-01   9.403813E-01
   3.757828E-01   9.995039E-01
   4.577457E-01   1.036835E+00
   5.349987E-01   1.051537E+00
   6.029478E-01   1.043796E+00
   6.572575E-01   1.015008E+00
   6.943299E-01   9.677322E-01
   7.116261E-01   9.052820E-01
   7.075866E-01   8.313186E-01
   6.814438E-01   7.497734E-01
   6.332965E-01   6.649059E-01
   5.643347E-01   5.811049E-01
   4.768119E-01   5.024720E-01
   3.737256E-01   4.325949E-01
   2.585966E-01   3.746355E-01
   1.355599E-01   3.313768E-01
   9.459038E-03   3.049387E-01
  -1.144127E-01   2.964006E-01
  -2.307805E-01   3.057319E-01
  -3.346545E-01   3.319895E-01
  -4.213541E-01   3.733890E-01
  -4.866644E-01   4.271475E-01
  -5.272954E-01   4.894646E-01
  -5.413049E-01   5.559049E-01
  -5.281290E-01   6.219195E-01
  -4.883716E-01   6.831043E-01
  -4.237513E-01   7.352448E-01
  -3.372189E-01   7.745272E-01
  -2.328684E-01   7.979881E-01
  -1.154872E-01   8.038181E-01
   9.906007E-03   7.912671E-01
   1.381965E-01   7.604147E-01
   2.641516E-01   7.121873E-01
   3.826270E-01   6.485338E-01
   4.889914E-01   5.723714E-01
   5.793734E-01   4.872349E-01
   6.505839E-01   3.970066E-01
   7.000489E-01   3.059566E-01
   7.260530E-01   2.188129E-01
   7.280837E-01   1.405011E-01
   7.068779E-01   7.567279E-02
   6.641856E-01   2.842788E-02
   6.026373E-01   2.297904E-03
   5.258390E-01   1.322005E-04
   4.383557E-01   2.369861E-02
   3.453085E-01   7.331049E-02
   2.518251E-01   1.478400E-01
   1.627475E-01   2.449905E-01
   8.257459E-02   3.614316E-01
   1.527032E-02   4.927529E-01
  -3.615786E-02   6.335977E-01
  -6.994973E-02   7.781437E-01
  -8.548559E-02   9.206087E-01
  -8.302454E-02   1.055428E+00
  -6.367053E-02   1.177251E+00
  -2.951011E-02   1.281133E+00
   1.645922E-02   1.362945E+00
   7.069630E-02   1.419614E+00
   1.294206E-01   1.449029E+00
   1.886081E-01   1.449934E+00
