 This RAW file was created using the MATLAB spectral
 simulation program developed by Robin Simpson
 and Jamie Near, FMRIB 2010

 Experiment Name : semi-LASER78_shapedSim
 Investigator    : jnear
 Comment : Simulated LCModel basis set for shaped semi-LASER experiment with echo time 78 ms

 User defined parameters:

 Sweep Width = 5998.8002 Hz
 Vector Size = 2048 points
 Apodization = 2.0000 Hz
 B0 Field    = 6.9800 T

 $NMID ID=Gln
 FMTDAT=(2E16.6)
 VOLUME=1.00000
 TRAMP=1.00000
 $END
   1.690631E-01  -4.956056E-02
   1.209744E-01  -1.221966E-01
   7.276686E-02  -1.271987E-01
   7.091901E-02  -1.276912E-01
   6.006733E-02  -1.685358E-01
  -6.985287E-03  -1.941674E-01
  -7.631557E-02  -1.459188E-01
  -7.543218E-02  -6.533421E-02
  -2.497469E-02  -2.991091E-02
   4.535657E-03  -3.742099E-02
   7.145345E-03  -2.808337E-02
   3.837928E-02   5.846516E-03
   1.120217E-01   5.834502E-03
   1.686284E-01  -5.725048E-02
   1.608704E-01  -1.338502E-01
   1.195552E-01  -1.664162E-01
   1.012423E-01  -1.685949E-01
   1.004601E-01  -1.923890E-01
   6.371614E-02  -2.350849E-01
  -1.364770E-02  -2.349454E-01
  -6.379936E-02  -1.704821E-01
  -4.499274E-02  -1.050498E-01
  -7.078169E-03  -9.372138E-02
  -8.181033E-03  -9.940048E-02
  -1.610450E-02  -6.414429E-02
   3.279491E-02  -1.980384E-02
   1.120604E-01  -4.230839E-02
   1.354531E-01  -1.203950E-01
   9.490532E-02  -1.677110E-01
   6.792929E-02  -1.626259E-01
   8.061480E-02  -1.740080E-01
   6.580083E-02  -2.298472E-01
  -1.248697E-02  -2.608618E-01
  -8.823651E-02  -2.163007E-01
  -9.734560E-02  -1.488107E-01
  -7.428463E-02  -1.263867E-01
  -8.247131E-02  -1.280848E-01
  -1.066052E-01  -9.493569E-02
  -8.571993E-02  -3.829255E-02
  -2.075934E-02  -2.452595E-02
   2.189553E-02  -7.021007E-02
   8.811055E-03  -1.189312E-01
  -1.876926E-02  -1.287591E-01
  -1.813755E-02  -1.294132E-01
  -1.435060E-02  -1.645854E-01
  -5.834568E-02  -2.127491E-01
  -1.388983E-01  -2.122565E-01
  -1.887701E-01  -1.564172E-01
  -1.832016E-01  -1.082266E-01
  -1.755388E-01  -1.030867E-01
  -2.049245E-01  -9.423257E-02
  -2.251182E-01  -3.810775E-02
  -1.818011E-01   1.911882E-02
  -1.139600E-01   8.823976E-03
  -9.984246E-02  -4.512503E-02
  -1.316724E-01  -6.412451E-02
  -1.358137E-01  -4.606473E-02
  -1.061653E-01  -6.217422E-02
  -1.170237E-01  -1.237279E-01
  -1.915499E-01  -1.531939E-01
  -2.562654E-01  -1.113915E-01
  -2.598772E-01  -5.940744E-02
  -2.493976E-01  -5.209144E-02
  -2.783810E-01  -5.123835E-02
  -3.125167E-01  -1.911782E-03
  -2.901665E-01   6.740921E-02
  -2.268017E-01   8.830063E-02
  -1.905321E-01   5.856268E-02
  -1.982462E-01   3.778716E-02
  -2.009324E-01   5.007197E-02
  -1.714453E-01   5.252556E-02
  -1.507571E-01   1.207525E-02
  -1.833181E-01  -3.453905E-02
  -2.441179E-01  -3.103041E-02
  -2.716638E-01   1.459440E-02
  -2.590456E-01   4.362130E-02
  -2.599677E-01   4.079754E-02
  -2.945378E-01   5.886059E-02
  -3.072114E-01   1.260854E-01
  -2.557251E-01   1.867516E-01
  -1.881677E-01   1.836723E-01
  -1.705820E-01   1.515305E-01
  -1.803762E-01   1.576997E-01
  -1.509119E-01   1.860330E-01
  -9.453139E-02   1.667337E-01
  -8.770072E-02   1.044176E-01
  -1.398377E-01   7.946099E-02
  -1.744825E-01   1.169189E-01
  -1.560830E-01   1.502794E-01
  -1.418109E-01   1.401802E-01
  -1.731826E-01   1.392227E-01
  -2.001748E-01   1.951082E-01
  -1.651400E-01   2.647768E-01
  -9.724718E-02   2.830022E-01
  -6.171707E-02   2.625991E-01
  -5.784096E-02   2.627173E-01
  -3.215126E-02   2.888655E-01
   2.611740E-02   2.888487E-01
   6.450413E-02   2.420961E-01
   4.850263E-02   1.965779E-01
   1.438328E-02   1.988383E-01
   1.377173E-02   2.272907E-01
   3.642121E-02   2.309013E-01
   3.161465E-02   2.135804E-01
  -2.609106E-03   2.298622E-01
  -6.386569E-03   2.924925E-01
   4.859181E-02   3.410028E-01
   1.087858E-01   3.326133E-01
   1.233356E-01   3.103274E-01
   1.274482E-01   3.277306E-01
   1.780050E-01   3.529781E-01
   2.467427E-01   3.215224E-01
   2.598877E-01   2.524228E-01
   2.219038E-01   2.239465E-01
   2.080641E-01   2.458230E-01
   2.368015E-01   2.495196E-01
   2.441048E-01   2.124266E-01
   2.021461E-01   1.978282E-01
   1.728361E-01   2.434591E-01
   2.058881E-01   2.947646E-01
   2.601449E-01   2.941798E-01
   2.773421E-01   2.689538E-01
   2.754667E-01   2.743036E-01
   3.088191E-01   2.976240E-01
   3.718221E-01   2.817782E-01
   4.052418E-01   2.199477E-01
   3.870960E-01   1.672364E-01
   3.619226E-01   1.572972E-01
   3.684233E-01   1.571901E-01
   3.812252E-01   1.265389E-01
   3.559523E-01   8.641715E-02
   3.071991E-01   8.906292E-02
   2.944595E-01   1.322592E-01
   3.313401E-01   1.553932E-01
   3.627033E-01   1.317344E-01
   3.546574E-01   1.094560E-01
   3.519217E-01   1.266169E-01
   3.993334E-01   1.390567E-01
   4.558394E-01   9.086382E-02
   4.545822E-01   1.344600E-02
   4.130165E-01  -2.132221E-02
   4.013478E-01  -1.886725E-02
   4.208202E-01  -4.610169E-02
   4.043953E-01  -1.085806E-01
   3.388739E-01  -1.364705E-01
   2.939375E-01  -1.039865E-01
   3.083745E-01  -7.369375E-02
   3.315354E-01  -9.204103E-02
   3.154774E-01  -1.190985E-01
   2.939364E-01  -1.068604E-01
   3.183825E-01  -8.463208E-02
   3.677112E-01  -1.101805E-01
   3.805081E-01  -1.762581E-01
   3.487369E-01  -2.248251E-01
   3.217390E-01  -2.371208E-01
   3.231745E-01  -2.544686E-01
   3.154409E-01  -3.042964E-01
   2.633951E-01  -3.512236E-01
   1.958300E-01  -3.490290E-01
   1.676285E-01  -3.135235E-01
   1.780333E-01  -3.012697E-01
   1.741429E-01  -3.226255E-01
   1.396728E-01  -3.278363E-01
   1.252261E-01  -2.953244E-01
   1.620168E-01  -2.778109E-01
   1.997798E-01  -3.200703E-01
   1.819196E-01  -3.812229E-01
   1.369820E-01  -3.994684E-01
   1.265664E-01  -3.941991E-01
   1.356698E-01  -4.272563E-01
   9.801756E-02  -4.878511E-01
   1.503708E-02  -5.038510E-01
  -4.009050E-02  -4.624808E-01
  -4.144516E-02  -4.305435E-01
  -4.602763E-02  -4.409665E-01
  -8.882479E-02  -4.438202E-01
  -1.227380E-01  -4.011920E-01
  -1.024001E-01  -3.569777E-01
  -6.279387E-02  -3.657677E-01
  -6.325579E-02  -4.070757E-01
  -9.766597E-02  -4.241909E-01
  -1.156856E-01  -4.142273E-01
  -1.099666E-01  -4.235226E-01
  -1.270124E-01  -4.650745E-01
  -1.906414E-01  -4.925961E-01
  -2.609185E-01  -4.688456E-01
  -2.911565E-01  -4.209731E-01
  -2.950766E-01  -3.977330E-01
  -3.196426E-01  -3.938743E-01
  -3.638387E-01  -3.617148E-01
  -3.748832E-01  -2.962653E-01
  -3.358256E-01  -2.549638E-01
  -3.022586E-01  -2.700142E-01
  -3.181678E-01  -2.945888E-01
  -3.466766E-01  -2.799199E-01
  -3.378692E-01  -2.573250E-01
  -3.212834E-01  -2.804991E-01
  -3.590364E-01  -3.238420E-01
  -4.360893E-01  -3.168623E-01
  -4.799995E-01  -2.597083E-01
  -4.785876E-01  -2.193750E-01
  -4.916380E-01  -2.137527E-01
  -5.393387E-01  -1.860557E-01
  -5.641604E-01  -1.105706E-01
  -5.293944E-01  -4.296829E-02
  -4.814076E-01  -3.144317E-02
  -4.736337E-01  -4.404570E-02
  -4.866189E-01  -2.942394E-02
  -4.728352E-01  -5.298881E-04
  -4.416120E-01  -5.204227E-03
  -4.448646E-01  -4.140898E-02
  -4.939845E-01  -5.563537E-02
  -5.415570E-01  -2.160823E-02
  -5.519824E-01   2.527577E-02
  -5.497703E-01   4.739183E-02
  -5.726983E-01   6.413513E-02
  -6.036512E-01   1.179443E-01
  -5.911448E-01   1.982332E-01
  -5.320629E-01   2.468051E-01
  -4.831973E-01   2.445614E-01
  -4.744483E-01   2.404716E-01
  -4.638101E-01   2.681914E-01
  -4.153666E-01   2.871209E-01
  -3.708221E-01   2.541191E-01
  -3.853976E-01   2.072697E-01
  -4.325068E-01   2.119525E-01
  -4.446012E-01   2.562662E-01
  -4.232808E-01   2.771777E-01
  -4.275671E-01   2.726112E-01
  -4.619904E-01   3.030867E-01
  -4.618811E-01   3.811592E-01
  -4.008300E-01   4.429377E-01
  -3.333010E-01   4.492666E-01
  -3.034553E-01   4.410765E-01
  -2.800633E-01   4.607751E-01
  -2.218398E-01   4.804438E-01
  -1.542226E-01   4.539757E-01
  -1.311557E-01   3.979776E-01
  -1.516283E-01   3.692811E-01
  -1.649303E-01   3.821356E-01
  -1.488005E-01   3.965430E-01
  -1.359405E-01   3.887372E-01
  -1.524424E-01   3.903068E-01
  -1.670966E-01   4.360397E-01
  -1.327090E-01   5.018711E-01
  -5.846767E-02   5.327016E-01
   1.893694E-03   5.221606E-01
   3.329410E-02   5.174250E-01
   7.961416E-02   5.357453E-01
   1.614418E-01   5.300534E-01
   2.278138E-01   4.691353E-01
   2.323730E-01   4.003737E-01
   2.103111E-01   3.809983E-01
   2.204249E-01   3.892773E-01
   2.480373E-01   3.699822E-01
   2.381580E-01   3.367756E-01
   2.017851E-01   3.509389E-01
   2.073494E-01   4.120054E-01
   2.703695E-01   4.518591E-01
   3.322474E-01   4.422765E-01
   3.609980E-01   4.301201E-01
   3.976827E-01   4.458270E-01
   4.747149E-01   4.479875E-01
   5.521952E-01   3.948259E-01
   5.774267E-01   3.158486E-01
   5.629024E-01   2.671050E-01
   5.583283E-01   2.504420E-01
   5.711741E-01   2.249465E-01
   5.633665E-01   1.824969E-01
   5.220796E-01   1.644462E-01
   4.899162E-01   1.963362E-01
   5.073924E-01   2.436298E-01
   5.554961E-01   2.579217E-01
   5.877396E-01   2.444776E-01
   6.040121E-01   2.449982E-01
   6.472098E-01   2.599413E-01
   7.225611E-01   2.385735E-01
   7.733570E-01   1.618294E-01
   7.634581E-01   8.242874E-02
   7.332330E-01   4.677910E-02
   7.294435E-01   2.557140E-02
   7.256262E-01  -2.554489E-02
   6.734623E-01  -7.820125E-02
   5.982152E-01  -7.305289E-02
   5.686120E-01  -2.236198E-02
   5.895549E-01   5.850175E-03
   6.025794E-01  -4.416293E-03
   5.901788E-01  -3.514955E-03
   6.011804E-01   2.491994E-02
   6.576088E-01   2.806870E-02
   7.078748E-01  -2.966253E-02
   7.036779E-01  -1.086495E-01
   6.673917E-01  -1.578276E-01
   6.435874E-01  -1.876628E-01
   6.242345E-01  -2.366893E-01
   5.685432E-01  -2.967499E-01
   4.773058E-01  -3.195156E-01
   4.010527E-01  -2.893763E-01
   3.717094E-01  -2.475369E-01
   3.634719E-01  -2.323902E-01
   3.408449E-01  -2.285074E-01
   3.182470E-01  -2.026585E-01
   3.353204E-01  -1.705120E-01
   3.832012E-01  -1.837440E-01
   4.033678E-01  -2.501152E-01
   3.706247E-01  -3.160385E-01
