 This RAW file was created using the MATLAB spectral
 simulation program developed by Robin Simpson
 and Jamie Near, FMRIB 2010

 Experiment Name : semi-LASER78_shapedSim
 Investigator    : jnear
 Comment : Simulated LCModel basis set for shaped semi-LASER experiment with echo time 78 ms

 User defined parameters:

 Sweep Width = 5998.8002 Hz
 Vector Size = 2048 points
 Apodization = 2.0000 Hz
 B0 Field    = 6.9800 T

 $NMID ID=Glu
 FMTDAT=(2E16.6)
 VOLUME=1.00000
 TRAMP=1.00000
 $END
   1.244150E-01  -2.443000E-02
   1.177670E-01  -8.941431E-02
   8.623794E-02  -1.428823E-01
   3.731528E-02  -1.754192E-01
  -1.852234E-02  -1.817089E-01
  -6.952413E-02  -1.612385E-01
  -1.046696E-01  -1.186713E-01
  -1.161065E-01  -6.322446E-02
  -1.010396E-01  -6.588443E-03
  -6.207506E-02   3.978917E-02
  -6.257343E-03   6.686637E-02
   5.634934E-02   6.937092E-02
   1.143107E-01   4.673396E-02
   1.569641E-01   3.465915E-03
   1.767803E-01  -5.162408E-02
   1.710198E-01  -1.074493E-01
   1.420284E-01  -1.531194E-01
   9.641034E-02  -1.799656E-01
   4.372249E-02  -1.828981E-01
  -5.107004E-03  -1.613437E-01
  -3.985231E-02  -1.196448E-01
  -5.331976E-02  -6.631112E-02
  -4.294835E-02  -1.199204E-02
  -1.097241E-02   3.291992E-02
   3.641705E-02   6.007363E-02
   9.013636E-02   6.437959E-02
   1.396045E-01   4.511120E-02
   1.749335E-01   6.438841E-03
   1.893317E-01  -4.349037E-02
   1.804267E-01  -9.468317E-02
   1.502066E-01  -1.373769E-01
   1.044326E-01  -1.635009E-01
   5.189523E-02  -1.680425E-01
   2.906342E-03  -1.503902E-01
  -3.308829E-02  -1.146953E-01
  -4.967446E-02  -6.870156E-02
  -4.444322E-02  -2.182863E-02
  -1.903627E-02   1.651657E-02
   2.111989E-02   3.840769E-02
   6.756141E-02   3.898189E-02
   1.104745E-01   1.771075E-02
   1.409741E-01  -2.146998E-02
   1.529804E-01  -7.128255E-02
   1.441308E-01  -1.227669E-01
   1.159655E-01  -1.668576E-01
   7.372227E-02  -1.958850E-01
   2.557199E-02  -2.051362E-01
  -1.902784E-02  -1.940594E-01
  -5.152960E-02  -1.663700E-01
  -6.607789E-02  -1.289347E-01
  -6.030375E-02  -9.019139E-02
  -3.549275E-02  -5.876269E-02
   3.453798E-03  -4.206118E-02
   4.867381E-02  -4.462142E-02
   9.110153E-02  -6.684488E-02
   1.226886E-01  -1.050907E-01
   1.379008E-01  -1.528825E-01
   1.343093E-01  -2.021963E-01
   1.129780E-01  -2.445825E-01
   7.866161E-02  -2.727132E-01
   3.898793E-02  -2.822298E-01
   2.519772E-03  -2.727668E-01
  -2.319788E-02  -2.476013E-01
  -3.279079E-02  -2.126612E-01
  -2.375912E-02  -1.755878E-01
   2.857186E-03  -1.445588E-01
   4.236101E-02  -1.265296E-01
   8.743785E-02  -1.255199E-01
   1.299660E-01  -1.418740E-01
   1.626578E-01  -1.725672E-01
   1.801677E-01  -2.119434E-01
   1.799463E-01  -2.525910E-01
   1.629145E-01  -2.866054E-01
   1.334823E-01  -3.073088E-01
   9.852577E-02  -3.108264E-01
   6.569341E-02  -2.967683E-01
   4.186812E-02  -2.679428E-01
   3.214332E-02  -2.296828E-01
   3.898922E-02  -1.890895E-01
   6.149198E-02  -1.538347E-01
   9.529761E-02  -1.303790E-01
   1.337420E-01  -1.224054E-01
   1.695431E-01  -1.303377E-01
   1.960769E-01  -1.517048E-01
   2.082332E-01  -1.815672E-01
   2.034387E-01  -2.130785E-01
   1.825756E-01  -2.388454E-01
   1.498324E-01  -2.528385E-01
   1.114075E-01  -2.516901E-01
   7.409076E-02  -2.349223E-01
   4.429997E-02  -2.047902E-01
   2.709328E-02  -1.661502E-01
   2.490975E-02  -1.257862E-01
   3.679991E-02  -9.083596E-02
   5.882624E-02  -6.705867E-02
   8.521954E-02  -5.784286E-02
   1.094862E-01  -6.392372E-02
   1.253628E-01  -8.329369E-02
   1.279714E-01  -1.113302E-01
   1.150373E-01  -1.416096E-01
   8.749128E-02  -1.674273E-01
   4.907157E-02  -1.833452E-01
   5.305327E-03  -1.861167E-01
  -3.751259E-02  -1.750130E-01
  -7.324386E-02  -1.519535E-01
  -9.704531E-02  -1.214208E-01
  -1.066085E-01  -8.967272E-02
  -1.027489E-01  -6.319465E-02
  -8.891521E-02  -4.719541E-02
  -7.018715E-02  -4.486062E-02
  -5.247357E-02  -5.708570E-02
  -4.170896E-02  -8.214763E-02
  -4.255161E-02  -1.156661E-01
  -5.705030E-02  -1.515649E-01
  -8.428374E-02  -1.837133E-01
  -1.210011E-01  -2.071563E-01
  -1.623618E-01  -2.186377E-01
  -2.024800E-01  -2.170734E-01
  -2.353895E-01  -2.041179E-01
  -2.565516E-01  -1.840370E-01
  -2.639910E-01  -1.625350E-01
  -2.583957E-01  -1.453151E-01
  -2.426288E-01  -1.371515E-01
  -2.212789E-01  -1.412856E-01
  -2.000710E-01  -1.587175E-01
  -1.847112E-01  -1.876987E-01
  -1.794574E-01  -2.240489E-01
  -1.861976E-01  -2.622708E-01
  -2.043470E-01  -2.967815E-01
  -2.311844E-01  -3.227936E-01
  -2.622522E-01  -3.369978E-01
  -2.919783E-01  -3.382868E-01
  -3.148237E-01  -3.282335E-01
  -3.266784E-01  -3.107653E-01
  -3.257383E-01  -2.910490E-01
  -3.125348E-01  -2.743139E-01
  -2.896143E-01  -2.651069E-01
  -2.612943E-01  -2.666505E-01
  -2.331062E-01  -2.799749E-01
  -2.105046E-01  -3.033848E-01
  -1.974257E-01  -3.329661E-01
  -1.956424E-01  -3.637721E-01
  -2.048645E-01  -3.907452E-01
  -2.228220E-01  -4.092804E-01
  -2.453158E-01  -4.160698E-01
  -2.669659E-01  -4.101481E-01
  -2.826776E-01  -3.932136E-01
  -2.888519E-01  -3.689114E-01
  -2.837720E-01  -3.418587E-01
  -2.676635E-01  -3.169998E-01
  -2.428634E-01  -2.989271E-01
  -2.136646E-01  -2.908163E-01
  -1.853560E-01  -2.934966E-01
  -1.628644E-01  -3.053585E-01
  -1.497858E-01  -3.230019E-01
  -1.479817E-01  -3.419939E-01
  -1.573570E-01  -3.575012E-01
  -1.756849E-01  -3.650816E-01
  -1.988578E-01  -3.617366E-01
  -2.218415E-01  -3.467465E-01
  -2.399573E-01  -3.217331E-01
  -2.497945E-01  -2.900343E-01
  -2.495724E-01  -2.559944E-01
  -2.393751E-01  -2.244135E-01
  -2.214189E-01  -1.997721E-01
  -1.998201E-01  -1.850815E-01
  -1.795174E-01  -1.810422E-01
  -1.649791E-01  -1.861515E-01
  -1.595035E-01  -1.973774E-01
  -1.649559E-01  -2.106425E-01
  -1.813230E-01  -2.212450E-01
  -2.063141E-01  -2.248334E-01
  -2.358054E-01  -2.186856E-01
  -2.650683E-01  -2.023139E-01
  -2.898216E-01  -1.771652E-01
  -3.067036E-01  -1.461635E-01
  -3.137144E-01  -1.134607E-01
  -3.108849E-01  -8.385942E-02
  -3.005221E-01  -6.162521E-02
  -2.865428E-01  -4.936005E-02
  -2.733776E-01  -4.763713E-02
  -2.651614E-01  -5.521016E-02
  -2.652106E-01  -6.925373E-02
  -2.754008E-01  -8.564653E-02
  -2.955330E-01  -9.970200E-02
  -3.232324E-01  -1.073281E-01
  -3.546102E-01  -1.060209E-01
  -3.852572E-01  -9.520565E-02
  -4.110154E-01  -7.608310E-02
  -4.285104E-01  -5.142127E-02
  -4.357912E-01  -2.529300E-02
  -4.330030E-01  -2.334700E-03
  -4.224732E-01   1.347487E-02
  -4.079507E-01   1.979002E-02
  -3.936148E-01   1.609776E-02
  -3.834754E-01   3.535422E-03
  -3.808965E-01  -1.513469E-02
  -3.877685E-01  -3.571685E-02
  -4.037547E-01  -5.352550E-02
  -4.264268E-01  -6.470517E-02
  -4.521537E-01  -6.697171E-02
  -4.768614E-01  -5.965332E-02
  -4.964526E-01  -4.372528E-02
  -5.074869E-01  -2.197283E-02
  -5.082012E-01   1.397053E-03
  -4.990725E-01   2.190483E-02
  -4.824581E-01   3.594228E-02
  -4.618553E-01   4.128218E-02
  -4.413650E-01   3.723697E-02
  -4.251737E-01   2.490224E-02
  -4.166768E-01   7.234166E-03
  -4.175246E-01  -1.152910E-02
  -4.272398E-01  -2.697411E-02
  -4.435593E-01  -3.550130E-02
  -4.630547E-01  -3.483265E-02
  -4.816584E-01  -2.425855E-02
  -4.952441E-01  -4.892284E-03
  -5.005216E-01   2.029137E-02
  -4.959807E-01   4.706439E-02
  -4.822397E-01   7.108277E-02
  -4.616320E-01   8.885051E-02
  -4.375938E-01   9.812761E-02
  -4.142554E-01   9.817043E-02
  -3.958755E-01   9.012556E-02
  -3.857784E-01   7.709142E-02
  -3.853678E-01   6.331554E-02
  -3.939900E-01   5.298569E-02
  -4.094466E-01   4.948268E-02
  -4.283920E-01   5.508932E-02
  -4.466140E-01   7.053381E-02
  -4.598235E-01   9.445323E-02
  -4.648837E-01   1.235572E-01
  -4.605851E-01   1.536232E-01
  -4.475776E-01   1.805187E-01
  -4.280234E-01   2.007450E-01
  -4.053993E-01   2.118841E-01
  -3.840710E-01   2.132593E-01
  -3.682918E-01   2.063472E-01
  -3.610663E-01   1.944054E-01
  -3.635661E-01   1.815390E-01
  -3.751548E-01   1.718420E-01
  -3.935946E-01   1.688175E-01
  -4.152709E-01   1.748045E-01
  -4.357307E-01   1.903228E-01
  -4.507040E-01   2.137443E-01
  -4.572007E-01   2.416990E-01
  -4.540676E-01   2.700095E-01
  -4.419370E-01   2.945349E-01
  -4.230330E-01   3.117072E-01
  -4.010146E-01   3.191255E-01
  -3.804149E-01   3.163170E-01
  -3.654722E-01   3.050586E-01
  -3.590102E-01   2.887975E-01
  -3.620613E-01   2.716660E-01
  -3.739804E-01   2.578199E-01
  -3.924418E-01   2.509650E-01
  -4.135196E-01   2.535417E-01
  -4.324877E-01   2.658529E-01
  -4.451368E-01   2.859742E-01
  -4.486862E-01   3.105001E-01
  -4.419950E-01   3.353383E-01
  -4.256403E-01   3.562081E-01
  -4.020964E-01   3.693105E-01
  -3.754697E-01   3.723453E-01
  -3.504802E-01   3.652333E-01
  -3.312539E-01   3.499966E-01
  -3.205927E-01   3.300993E-01
  -3.196771E-01   3.098135E-01
  -3.278272E-01   2.936380E-01
  -3.423814E-01   2.854602E-01
  -3.591129E-01   2.875551E-01
  -3.732636E-01   2.999716E-01
  -3.806908E-01   3.206689E-01
  -3.785945E-01   3.461436E-01
  -3.658392E-01   3.720634E-01
  -3.432120E-01   3.938638E-01
  -3.135648E-01   4.076283E-01
  -2.813507E-01   4.111673E-01
  -2.514676E-01   4.046129E-01
  -2.280945E-01   3.901443E-01
  -2.140980E-01   3.713309E-01
  -2.107292E-01   3.526427E-01
  -2.171858E-01   3.388669E-01
  -2.304302E-01   3.340061E-01
  -2.458907E-01   3.401124E-01
  -2.587414E-01   3.569146E-01
  -2.648692E-01   3.822220E-01
  -2.613478E-01   4.123878E-01
  -2.469559E-01   4.426776E-01
  -2.227686E-01   4.680822E-01
  -1.921278E-01   4.846157E-01
  -1.597310E-01   4.903163E-01
  -1.304765E-01   4.854303E-01
  -1.086587E-01   4.721275E-01
  -9.736193E-02   4.541981E-01
  -9.776170E-02   4.365587E-01
  -1.086168E-01   4.242465E-01
  -1.264709E-01   4.211524E-01
  -1.465592E-01   4.291426E-01
  -1.638841E-01   4.478636E-01
  -1.740475E-01   4.749574E-01
  -1.739328E-01   5.063830E-01
  -1.624266E-01   5.369730E-01
  -1.409126E-01   5.614966E-01
  -1.130209E-01   5.759758E-01
  -8.363253E-02   5.785498E-01
