 This RAW file was created using the MATLAB spectral
 simulation program developed by Robin Simpson
 and Jamie Near, FMRIB 2010

 Experiment Name : semi-LASER78_shapedSim
 Investigator    : jnear
 Comment : Simulated LCModel basis set for shaped semi-LASER experiment with echo time 78 ms

 User defined parameters:

 Sweep Width = 5998.8002 Hz
 Vector Size = 2048 points
 Apodization = 2.0000 Hz
 B0 Field    = 6.9800 T

 $NMID ID=H2O
 FMTDAT=(2E16.6)
 VOLUME=1.00000
 TRAMP=1.00000
 $END
   5.412732E-01  -8.058154E-02
   3.421891E-01  -4.264062E-01
  -3.839066E-02  -5.447816E-01
  -3.976374E-01  -3.732770E-01
  -5.445216E-01  -3.793717E-03
  -4.014088E-01   3.666616E-01
  -4.511131E-02   5.410129E-01
   3.343166E-01   4.269606E-01
   5.349415E-01   8.585869E-02
   4.504174E-01  -3.002633E-01
   1.263654E-01  -5.258163E-01
  -2.642265E-01  -4.710965E-01
  -5.133214E-01  -1.658011E-01
  -4.886071E-01   2.270853E-01
  -2.037465E-01   4.982908E-01
   1.891877E-01   5.037054E-01
   4.809081E-01   2.409310E-01
   5.163837E-01  -1.497246E-01
   2.772184E-01  -4.601833E-01
  -1.088333E-01  -5.254391E-01
  -4.361290E-01  -3.112578E-01
  -5.306999E-01   6.787524E-02
  -3.427348E-01   4.099688E-01
   2.718221E-02   5.331637E-01
   3.819007E-01   3.724336E-01
   5.327896E-01   1.392446E-02
   4.000663E-01  -3.512011E-01
   5.500307E-02  -5.286903E-01
  -3.183200E-01  -4.245523E-01
  -5.211990E-01  -9.484739E-02
  -4.460608E-01   2.844666E-01
  -1.335046E-01   5.114169E-01
   2.496181E-01   4.655401E-01
   4.992526E-01   1.718088E-01
   4.827966E-01  -2.129596E-01
   2.095126E-01  -4.838168E-01
  -1.746876E-01  -4.968342E-01
  -4.651558E-01  -2.455649E-01
  -5.075144E-01   1.358003E-01
  -2.796955E-01   4.441125E-01
   9.658402E-02   5.154876E-01
   4.208706E-01   3.124179E-01
   5.207779E-01  -5.653353E-02
   3.436357E-01  -3.947896E-01
  -1.574112E-02  -5.225190E-01
  -3.658052E-01  -3.722662E-01
  -5.203823E-01  -2.459579E-02
  -3.977030E-01   3.350861E-01
  -6.367742E-02   5.153964E-01
   3.034911E-01   4.208082E-01
   5.083625E-01   1.022668E-01
   4.422830E-01  -2.702341E-01
   1.410092E-01  -4.983585E-01
  -2.346252E-01  -4.610192E-01
  -4.845520E-01  -1.786450E-01
  -4.760053E-01   1.979836E-01
  -2.140294E-01   4.682320E-01
   1.614847E-01   4.884707E-01
   4.505058E-01   2.483854E-01
   4.994170E-01  -1.238025E-01
   2.826561E-01  -4.298374E-01
  -8.394345E-02  -5.070519E-01
  -4.050673E-01  -3.148363E-01
  -5.099909E-01   4.400778E-02
  -3.433527E-01   3.782535E-01
   5.635046E-03   5.101639E-01
   3.509508E-01   3.700175E-01
   5.089328E-01   3.296948E-02
   3.959815E-01  -3.212432E-01
   7.281895E-02  -5.041500E-01
  -2.881312E-01  -4.188368E-01
  -4.947222E-01  -1.113082E-01
  -4.373584E-01   2.542984E-01
  -1.471307E-01   4.832980E-01
   2.210254E-01   4.541107E-01
   4.710285E-01   1.828002E-01
   4.700719E-01  -1.857593E-01
   2.191602E-01  -4.552352E-01
  -1.476980E-01  -4.824098E-01
  -4.350643E-01  -2.532777E-01
  -4.901837E-01   1.097644E-01
  -2.841719E-01   4.133160E-01
   7.286878E-02   4.960135E-01
   3.907094E-01   3.143134E-01
   5.003617E-01  -3.458370E-02
   3.439367E-01  -3.647347E-01
   5.209475E-03  -5.005605E-01
  -3.352477E-01  -3.702323E-01
  -4.963369E-01  -4.366336E-02
  -3.927803E-01   3.049910E-01
  -8.028076E-02   4.902112E-01
   2.744187E-01   4.138376E-01
   4.824879E-01   1.171056E-01
   4.335235E-01  -2.415930E-01
   1.541240E-01  -4.712349E-01
  -2.065520E-01  -4.498746E-01
  -4.564095E-01  -1.893856E-01
  -4.627191E-01   1.711349E-01
  -2.226196E-01   4.396426E-01
   1.356262E-01   4.734387E-01
   4.211451E-01   2.549966E-01
   4.821378E-01  -9.896732E-02
   2.865650E-01  -3.998654E-01
  -6.104935E-02  -4.877203E-01
  -3.755060E-01  -3.162196E-01
  -4.896247E-01   2.287868E-02
  -3.431489E-01   3.488475E-01
  -1.457839E-02   4.883252E-01
   3.208863E-01   3.675284E-01
   4.847578E-01   5.129163E-02
   3.902240E-01  -2.917228E-01
   8.813561E-02  -4.789789E-01
  -2.603446E-01  -4.112092E-01
  -4.697226E-01  -1.250497E-01
  -4.289176E-01   2.267423E-01
  -1.602073E-01   4.568131E-01
   1.929081E-01   4.429737E-01
   4.423160E-01   1.930781E-01
   4.554774E-01  -1.594273E-01
   2.258334E-01  -4.267689E-01
  -1.239631E-01  -4.668679E-01
  -4.075715E-01  -2.588430E-01
  -4.742377E-01   8.612530E-02
  -2.889312E-01   3.842162E-01
   4.925141E-02   4.769177E-01
   3.600839E-01   3.153088E-01
   4.782622E-01  -1.413931E-02
   3.413167E-01  -3.358485E-01
   2.263064E-02  -4.787291E-01
  -3.078878E-01  -3.671895E-01
  -4.744019E-01  -6.114725E-02
  -3.887048E-01   2.761376E-01
  -9.695904E-02   4.651404E-01
   2.451511E-01   4.056194E-01
   4.554851E-01   1.297785E-01
   4.224116E-01  -2.151495E-01
   1.640542E-01  -4.454859E-01
  -1.816273E-01  -4.389151E-01
  -4.304950E-01  -1.994359E-01
  -4.503056E-01   1.450294E-01
  -2.309667E-01   4.109571E-01
   1.103433E-01   4.569838E-01
   3.917820E-01   2.590374E-01
   4.637265E-01  -7.709356E-02
   2.883164E-01  -3.723088E-01
  -4.063042E-02  -4.696366E-01
  -3.478035E-01  -3.177027E-01
  -4.698373E-01   2.156931E-03
  -3.421979E-01   3.194438E-01
  -3.330783E-02   4.653897E-01
   2.921349E-01   3.627371E-01
   4.609805E-01   6.664712E-02
   3.837635E-01  -2.649290E-01
   1.021212E-01  -4.555031E-01
  -2.336398E-01  -4.039880E-01
  -4.447467E-01  -1.383179E-01
  -4.191381E-01   1.996902E-01
  -1.709452E-01   4.300348E-01
   1.672946E-01   4.303836E-01
   4.154057E-01   2.010424E-01
   4.415412E-01  -1.354638E-01
   2.322360E-01  -3.998354E-01
  -1.006709E-01  -4.515170E-01
  -3.797995E-01  -2.634048E-01
  -4.567410E-01   6.396348E-02
  -2.909608E-01   3.561615E-01
   2.885630E-02   4.578282E-01
   3.322559E-01   3.152854E-01
   4.578676E-01   4.884238E-03
   3.392365E-01  -3.078842E-01
   3.997930E-02  -4.566176E-01
  -2.803331E-01  -3.625315E-01
  -4.512721E-01  -7.618876E-02
  -3.822461E-01   2.496761E-01
  -1.105263E-01   4.416342E-01
   2.188581E-01   3.978766E-01
   4.305120E-01   1.422257E-01
   4.120579E-01  -1.888082E-01
   1.737928E-01  -4.188979E-01
  -1.570495E-01  -4.258008E-01
  -4.042408E-01  -2.062880E-01
  -4.364282E-01   1.223845E-01
  -2.369324E-01   3.851151E-01
   8.761362E-02   4.422444E-01
   3.642549E-01   2.637916E-01
   4.458737E-01  -5.481881E-02
   2.894107E-01  -3.437847E-01
  -2.143850E-02  -4.494204E-01
  -3.210128E-01  -3.158889E-01
  -4.499894E-01  -1.470621E-02
  -3.401326E-01   2.935696E-01
  -5.040654E-02   4.449435E-01
   2.646621E-01   3.592385E-01
   4.373971E-01   8.257306E-02
   3.762076E-01  -2.374438E-01
   1.141527E-01  -4.304617E-01
  -2.089145E-01  -3.940675E-01
  -4.209824E-01  -1.481273E-01
  -4.094668E-01   1.760450E-01
  -1.809863E-01   4.057897E-01
   1.424105E-01   4.190558E-01
   3.884259E-01   2.092362E-01
   4.262955E-01  -1.115576E-01
   2.362792E-01  -3.723945E-01
  -8.006492E-02  -4.345943E-01
  -3.541667E-01  -2.654487E-01
  -4.402705E-01   4.459382E-02
  -2.929376E-01   3.303025E-01
   8.982509E-03   4.397270E-01
   3.045579E-01   3.150132E-01
   4.365629E-01   2.299028E-02
   3.351185E-01  -2.806428E-01
   5.468612E-02  -4.343372E-01
  -2.551686E-01  -3.566526E-01
  -4.295484E-01  -8.941350E-02
  -3.759835E-01   2.248046E-01
  -1.234724E-01   4.187432E-01
   1.932061E-01   3.894988E-01
   4.054258E-01   1.531335E-01
   4.005021E-01  -1.641236E-01
   1.815286E-01  -3.932723E-01
  -1.345138E-01  -4.125516E-01
  -3.792395E-01  -2.121269E-01
  -4.225611E-01   1.009117E-01
  -2.418257E-01   3.597735E-01
   6.635385E-02   4.268354E-01
   3.377492E-01   2.668066E-01
   4.280335E-01  -3.470359E-02
   2.895314E-01  -3.169806E-01
  -3.612024E-03  -4.298662E-01
  -2.951290E-01  -3.136279E-01
  -4.299382E-01  -3.055224E-02
  -3.366488E-01   2.684470E-01
  -6.536573E-02   4.243020E-01
   2.392226E-01   3.544328E-01
   4.150191E-01   9.651770E-02
   3.687918E-01  -2.118070E-01
   1.256280E-01  -4.063850E-01
  -1.846653E-01  -3.839318E-01
  -3.968475E-01  -1.568566E-01
  -3.982364E-01   1.535876E-01
  -1.885495E-01   3.820500E-01
   1.201845E-01   4.071527E-01
   3.634704E-01   2.159803E-01
   4.119806E-01  -8.927662E-02
   2.402937E-01  -3.459335E-01
  -5.979350E-02  -4.174975E-01
  -3.283484E-01  -2.662379E-01
  -4.225374E-01   2.693906E-02
  -2.925876E-01   3.057796E-01
  -8.078910E-03   4.219717E-01
   2.793202E-01   3.140374E-01
   4.167146E-01   3.986157E-02
   3.313276E-01  -2.543520E-01
   6.905129E-02  -4.120461E-01
  -2.302174E-01  -3.496204E-01
  -4.072000E-01  -1.007535E-01
  -3.680152E-01   2.017630E-01
  -1.339863E-01   3.968826E-01
   1.699498E-01   3.810466E-01
   3.819366E-01   1.631568E-01
   3.893918E-01  -1.404021E-01
   1.888013E-01  -3.679154E-01
  -1.126435E-01  -3.984771E-01
  -3.543126E-01  -2.162331E-01
  -4.077168E-01   8.140233E-02
  -2.448076E-01   3.358144E-01
   4.730494E-02   4.117103E-01
   3.129381E-01   2.690591E-01
   4.108120E-01  -1.580358E-02
   2.891908E-01  -2.910286E-01
   1.322539E-02  -4.101996E-01
  -2.699486E-01  -3.102210E-01
  -4.096595E-01  -4.471508E-02
  -3.318662E-01   2.447470E-01
  -7.838987E-02   4.041445E-01
   2.155772E-01   3.489730E-01
   3.935911E-01   1.090553E-01
   3.612311E-01  -1.875675E-01
   1.362000E-01  -3.829655E-01
  -1.613351E-01  -3.734062E-01
  -3.728965E-01  -1.644262E-01
  -3.860940E-01   1.323504E-01
  -1.943228E-01   3.588287E-01
   9.994777E-02   3.946572E-01
   3.399250E-01   2.211844E-01
   3.980333E-01  -6.883013E-02
   2.437358E-01  -3.208036E-01
  -4.041763E-02  -4.007102E-01
  -3.029474E-01  -2.663529E-01
  -4.041839E-01   1.037312E-02
  -2.905571E-01   2.819661E-01
  -2.292276E-02   4.039501E-01
   2.560474E-01   3.117354E-01
   3.979385E-01   5.481969E-02
   3.275639E-01  -2.297799E-01
   8.281398E-02  -3.906029E-01
  -2.057376E-01  -3.423537E-01
  -3.844956E-01  -1.111396E-01
  -3.586048E-01   1.796557E-01
  -1.422873E-01   3.752214E-01
   1.489590E-01   3.717477E-01
   3.600260E-01   1.715445E-01
   3.788032E-01  -1.184165E-01
   1.957333E-01  -3.436400E-01
  -9.132111E-02  -3.844098E-01
