 This RAW file was created using the MATLAB spectral
 simulation program developed by Robin Simpson
 and Jamie Near, FMRIB 2010

 Experiment Name : semi-LASER78_shapedSim
 Investigator    : jnear
 Comment : Simulated LCModel basis set for shaped semi-LASER experiment with echo time 78 ms

 User defined parameters:

 Sweep Width = 5998.8002 Hz
 Vector Size = 2048 points
 Apodization = 2.0000 Hz
 B0 Field    = 6.9800 T

 $NMID ID=NAA
 FMTDAT=(2E16.6)
 VOLUME=1.00000
 TRAMP=1.00000
 $END
   9.542551E-01  -3.118449E-01
   1.010118E+00  -1.078602E-01
   1.086720E+00   7.515965E-02
   1.163455E+00   2.198498E-01
   1.213964E+00   3.292426E-01
   1.224690E+00   4.206257E-01
   1.194543E+00   5.108394E-01
   1.128899E+00   6.159233E-01
   1.045269E+00   7.496608E-01
   9.706406E-01   9.090663E-01
   9.216794E-01   1.072072E+00
   8.964043E-01   1.215277E+00
   8.844456E-01   1.323182E+00
   8.699539E-01   1.384744E+00
   8.288452E-01   1.400381E+00
   7.427058E-01   1.390535E+00
   6.146558E-01   1.382167E+00
   4.621256E-01   1.390561E+00
   3.040299E-01   1.420415E+00
   1.617667E-01   1.468833E+00
   5.462503E-02   1.517404E+00
  -1.724929E-02   1.537221E+00
  -7.368962E-02   1.510443E+00
  -1.364016E-01   1.437318E+00
  -2.216863E-01   1.326766E+00
  -3.426226E-01   1.196411E+00
  -4.985737E-01   1.074400E+00
  -6.670174E-01   9.822947E-01
  -8.192954E-01   9.195514E-01
  -9.377548E-01   8.720034E-01
  -1.013785E+00   8.225386E-01
  -1.047753E+00   7.489871E-01
  -1.058392E+00   6.317025E-01
  -1.075245E+00   4.720022E-01
  -1.116352E+00   2.909242E-01
  -1.183231E+00   1.113297E-01
  -1.269305E+00  -4.699742E-02
  -1.357045E+00  -1.664246E-01
  -1.417266E+00  -2.448217E-01
  -1.428563E+00  -3.026771E-01
  -1.391390E+00  -3.657625E-01
  -1.318465E+00  -4.501402E-01
  -1.226843E+00  -5.651872E-01
  -1.141199E+00  -7.107595E-01
  -1.083657E+00  -8.667422E-01
  -1.054879E+00  -1.002774E+00
  -1.037370E+00  -1.100066E+00
  -1.012053E+00  -1.153985E+00
  -9.602214E-01  -1.167189E+00
  -8.638812E-01  -1.155507E+00
  -7.215240E-01  -1.147656E+00
  -5.539996E-01  -1.164384E+00
  -3.865898E-01  -1.206454E+00
  -2.370560E-01  -1.264623E+00
  -1.194282E-01  -1.324004E+00
  -3.790114E-02  -1.359591E+00
   2.458750E-02  -1.348801E+00
   9.502908E-02  -1.290296E+00
   1.899971E-01  -1.199090E+00
   3.153500E-01  -1.092363E+00
   4.706847E-01  -9.905583E-01
   6.402989E-01  -9.152875E-01
   7.945859E-01  -8.712534E-01
   9.117565E-01  -8.415599E-01
   9.877099E-01  -8.053363E-01
   1.026600E+00  -7.462857E-01
   1.040517E+00  -6.488564E-01
   1.054646E+00  -5.079558E-01
   1.092262E+00  -3.409871E-01
   1.156307E+00  -1.751079E-01
   1.235407E+00  -2.876545E-02
   1.315064E+00   8.689314E-02
   1.374000E+00   1.667085E-01
   1.388664E+00   2.233275E-01
   1.353288E+00   2.842285E-01
   1.283123E+00   3.694513E-01
   1.197501E+00   4.839006E-01
   1.114499E+00   6.256492E-01
   1.053977E+00   7.824446E-01
   1.024323E+00   9.267830E-01
   1.010604E+00   1.033446E+00
   9.887769E-01   1.096968E+00
   9.419850E-01   1.124584E+00
   8.578398E-01   1.128121E+00
   7.303382E-01   1.129413E+00
   5.734712E-01   1.153039E+00
   4.160443E-01   1.205117E+00
   2.793304E-01   1.272123E+00
   1.718065E-01   1.336944E+00
   9.616376E-02   1.381207E+00
   4.259257E-02   1.383428E+00
  -1.511459E-02   1.335076E+00
  -9.997948E-02   1.251146E+00
  -2.163039E-01   1.154534E+00
  -3.578984E-01   1.062386E+00
  -5.131761E-01   9.900233E-01
  -6.585508E-01   9.461051E-01
  -7.682721E-01   9.182568E-01
  -8.355698E-01   8.806117E-01
  -8.712790E-01   8.152562E-01
  -8.891197E-01   7.145374E-01
  -9.064477E-01   5.753538E-01
  -9.449207E-01   4.085391E-01
  -1.012559E+00   2.413581E-01
  -1.095222E+00   9.678267E-02
  -1.173063E+00  -1.915907E-02
  -1.230768E+00  -1.081701E-01
  -1.252407E+00  -1.778751E-01
  -1.228901E+00  -2.494071E-01
  -1.172461E+00  -3.455417E-01
  -1.107027E+00  -4.707037E-01
  -1.048844E+00  -6.148994E-01
  -1.007310E+00  -7.662916E-01
  -9.889827E-01  -9.072223E-01
  -9.857149E-01  -1.014785E+00
  -9.735214E-01  -1.079993E+00
  -9.334581E-01  -1.114040E+00
  -8.608687E-01  -1.131986E+00
  -7.558525E-01  -1.146528E+00
  -6.251396E-01  -1.173994E+00
  -4.903979E-01  -1.224189E+00
  -3.746386E-01  -1.286216E+00
  -2.839123E-01  -1.339479E+00
  -2.132209E-01  -1.370302E+00
  -1.560579E-01  -1.368289E+00
  -9.738929E-02  -1.324710E+00
  -1.584820E-02  -1.246679E+00
   9.620888E-02  -1.156797E+00
   2.286265E-01  -1.072672E+00
   3.688374E-01  -1.000960E+00
   5.040667E-01  -9.462596E-01
   6.153809E-01  -9.053694E-01
   6.907063E-01  -8.588821E-01
   7.383862E-01  -7.864825E-01
   7.750291E-01  -6.833156E-01
   8.119601E-01  -5.526845E-01
   8.608400E-01  -3.999245E-01
   9.322910E-01  -2.416517E-01
   1.020001E+00  -1.012887E-01
   1.102998E+00   1.156904E-02
   1.165485E+00   1.029890E-01
   1.199799E+00   1.806483E-01
   1.198823E+00   2.551718E-01
   1.165121E+00   3.451269E-01
   1.118445E+00   4.613683E-01
   1.078702E+00   5.948840E-01
   1.051836E+00   7.301143E-01
   1.038218E+00   8.554800E-01
   1.035464E+00   9.565204E-01
   1.027978E+00   1.020319E+00
   9.940438E-01   1.052072E+00
   9.262467E-01   1.070371E+00
   8.306615E-01   1.088378E+00
   7.142101E-01   1.113794E+00
   5.889370E-01   1.154967E+00
   4.754898E-01   1.209216E+00
   3.855720E-01   1.257109E+00
   3.121352E-01   1.280810E+00
   2.437502E-01   1.275242E+00
   1.719324E-01   1.238656E+00
   8.334979E-02   1.172801E+00
  -3.315705E-02   1.093760E+00
  -1.705011E-01   1.022445E+00
  -3.106746E-01   9.654990E-01
  -4.418292E-01   9.190555E-01
  -5.552277E-01   8.796872E-01
  -6.406138E-01   8.374522E-01
  -6.996606E-01   7.739604E-01
  -7.495366E-01   6.807565E-01
  -8.041658E-01   5.660639E-01
  -8.667448E-01   4.398765E-01
  -9.400173E-01   3.102399E-01
  -1.023173E+00   1.917897E-01
  -1.101022E+00   9.658012E-02
  -1.155323E+00   1.924506E-02
  -1.181556E+00  -5.351513E-02
  -1.182326E+00  -1.285703E-01
  -1.158737E+00  -2.125226E-01
  -1.119897E+00  -3.146543E-01
  -1.083319E+00  -4.321674E-01
  -1.056480E+00  -5.487465E-01
  -1.033238E+00  -6.527381E-01
  -1.008348E+00  -7.406609E-01
  -9.772128E-01  -8.067814E-01
  -9.269920E-01  -8.493150E-01
  -8.477358E-01  -8.809605E-01
  -7.456280E-01  -9.162420E-01
  -6.319773E-01  -9.575733E-01
  -5.121970E-01  -1.004018E+00
  -3.945278E-01  -1.056918E+00
  -2.907380E-01  -1.108208E+00
  -2.003264E-01  -1.141791E+00
  -1.111423E-01  -1.151658E+00
  -1.638133E-02  -1.142539E+00
   8.560855E-02  -1.116605E+00
   2.009939E-01  -1.077484E+00
   3.312083E-01  -1.038646E+00
   4.633063E-01  -1.010279E+00
   5.838345E-01  -9.878852E-01
   6.898827E-01  -9.643388E-01
   7.789607E-01  -9.374545E-01
   8.466640E-01  -8.996403E-01
   8.996833E-01  -8.399058E-01
   9.521582E-01  -7.600917E-01
   1.008179E+00  -6.719223E-01
   1.063871E+00  -5.813642E-01
   1.119106E+00  -4.919214E-01
   1.170430E+00  -4.128025E-01
   1.204119E+00  -3.471450E-01
   1.211073E+00  -2.841236E-01
   1.195836E+00  -2.139763E-01
   1.163615E+00  -1.360924E-01
   1.115893E+00  -4.801071E-02
   1.061454E+00   5.389165E-02
   1.011628E+00   1.612132E-01
   9.645812E-01   2.597839E-01
   9.109372E-01   3.459874E-01
   8.478546E-01   4.218880E-01
   7.730352E-01   4.851801E-01
   6.782815E-01   5.385067E-01
   5.628488E-01   5.943625E-01
   4.387547E-01   6.591612E-01
   3.149247E-01   7.272951E-01
   1.923494E-01   7.948988E-01
   7.570872E-02   8.612207E-01
  -2.991572E-02   9.174696E-01
  -1.315227E-01   9.538836E-01
  -2.395553E-01   9.738650E-01
  -3.536435E-01   9.856573E-01
  -4.703472E-01   9.903070E-01
  -5.914227E-01   9.901681E-01
  -7.128295E-01   9.936025E-01
  -8.219776E-01   1.000888E+00
  -9.137833E-01   1.001784E+00
  -9.930952E-01   9.914022E-01
  -1.060686E+00   9.714038E-01
  -1.115021E+00   9.380530E-01
  -1.163245E+00   8.878367E-01
  -1.212326E+00   8.287690E-01
  -1.257149E+00   7.699511E-01
  -1.291038E+00   7.101195E-01
  -1.315055E+00   6.478905E-01
  -1.327220E+00   5.877511E-01
  -1.319710E+00   5.276563E-01
  -1.293198E+00   4.583168E-01
  -1.256583E+00   3.786261E-01
  -1.211977E+00   2.946507E-01
  -1.157179E+00   2.062399E-01
  -1.097229E+00   1.120152E-01
  -1.036434E+00   1.973851E-02
  -9.684435E-01  -6.409719E-02
  -8.879058E-01  -1.437906E-01
  -7.988003E-01  -2.225123E-01
  -7.024877E-01  -2.962414E-01
  -5.945283E-01  -3.661748E-01
  -4.780637E-01  -4.392128E-01
  -3.623552E-01  -5.136382E-01
  -2.482900E-01  -5.818430E-01
  -1.323014E-01  -6.439028E-01
  -1.828642E-02  -7.019351E-01
   9.032257E-02  -7.498550E-01
   1.995854E-01  -7.836072E-01
   3.131629E-01  -8.093173E-01
   4.252296E-01  -8.306609E-01
   5.331861E-01  -8.435137E-01
   6.405444E-01  -8.486512E-01
   7.439122E-01  -8.518899E-01
   8.352354E-01  -8.505059E-01
   9.156714E-01  -8.371654E-01
   9.904522E-01  -8.132875E-01
   1.056926E+00  -7.826575E-01
   1.112611E+00  -7.413638E-01
   1.163445E+00  -6.878700E-01
   1.211822E+00  -6.298532E-01
   1.250873E+00  -5.710419E-01
   1.277942E+00  -5.067758E-01
   1.297146E+00  -4.371987E-01
   1.306557E+00  -3.673251E-01
   1.300803E+00  -2.943510E-01
   1.283818E+00  -2.125604E-01
   1.262279E+00  -1.259389E-01
   1.233756E+00  -4.049111E-02
   1.195367E+00   4.603458E-02
   1.151936E+00   1.342982E-01
   1.104650E+00   2.173571E-01
   1.046865E+00   2.934632E-01
   9.778525E-01   3.688034E-01
   9.041484E-01   4.435401E-01
   8.260717E-01   5.121287E-01
   7.401273E-01   5.759493E-01
   6.507856E-01   6.385224E-01
   5.634015E-01   6.943922E-01
   4.736959E-01   7.380199E-01
   3.778305E-01   7.734299E-01
   2.806311E-01   8.034182E-01
   1.842337E-01   8.233203E-01
   8.418238E-02   8.330132E-01
  -1.779924E-02   8.385052E-01
  -1.142029E-01   8.384817E-01
  -2.054371E-01   8.262770E-01
  -2.964824E-01   8.031298E-01
  -3.847476E-01   7.733505E-01
  -4.666872E-01   7.336646E-01
  -5.469642E-01   6.818260E-01
  -6.279530E-01   6.245160E-01
  -7.029090E-01   5.654684E-01
