 This RAW file was created using the MATLAB spectral
 simulation program developed by Robin Simpson
 and Jamie Near, FMRIB 2010

 Experiment Name : semi-LASER78_shapedSim
 Investigator    : jnear
 Comment : Simulated LCModel basis set for shaped semi-LASER experiment with echo time 78 ms

 User defined parameters:

 Sweep Width = 5998.8002 Hz
 Vector Size = 2048 points
 Apodization = 2.0000 Hz
 B0 Field    = 6.9800 T

 $NMID ID=Scyllo
 FMTDAT=(2E16.6)
 VOLUME=1.00000
 TRAMP=1.00000
 $END
   3.498658E+00  -6.424646E-02
   3.293848E+00  -1.170670E+00
   2.748140E+00  -2.153416E+00
   1.918827E+00  -2.910753E+00
   8.924944E-01  -3.364490E+00
  -2.239723E-01  -3.468064E+00
  -1.314523E+00  -3.211357E+00
  -2.266032E+00  -2.621664E+00
  -2.980006E+00  -1.760779E+00
  -3.382778E+00  -7.185659E-01
  -3.433167E+00   3.964191E-01
  -3.126709E+00   1.468291E+00
  -2.496003E+00   2.385904E+00
  -1.607246E+00   3.054357E+00
  -5.533089E-01   3.404828E+00
   5.560021E-01   3.401698E+00
   1.605429E+00   3.046134E+00
   2.486210E+00   2.375827E+00
   3.107306E+00   1.461020E+00
   3.404826E+00   3.971589E-01
   3.348589E+00  -7.050949E-01
   2.945131E+00  -1.731368E+00
   2.236939E+00  -2.575379E+00
   1.298036E+00  -3.149934E+00
   2.262503E-01  -3.395967E+00
  -8.670012E-01  -3.288610E+00
  -1.868269E+00  -2.839686E+00
  -2.673814E+00  -2.096462E+00
  -3.200407E+00  -1.136722E+00
  -3.393979E+00  -6.059459E-02
  -3.235151E+00   1.019914E+00
  -2.741175E+00   1.992559E+00
  -1.964103E+00   2.756524E+00
  -9.852849E-01   3.232922E+00
   9.320144E-02   3.372933E+00
   1.159205E+00   3.162748E+00
   2.102127E+00   2.624916E+00
   2.824406E+00   1.815941E+00
   3.251628E+00   8.203022E-01
   3.340135E+00  -2.583998E-01
   3.081445E+00  -1.308173E+00
   2.503096E+00  -2.220225E+00
   1.665738E+00  -2.900269E+00
   6.567510E-01  -3.278264E+00
  -4.188506E-01  -3.315597E+00
  -1.449287E+00  -3.009051E+00
  -2.327638E+00  -2.391139E+00
  -2.962991E+00  -1.526657E+00
  -3.289838E+00  -5.058653E-01
  -3.274813E+00   5.649105E-01
  -2.920146E+00   1.574339E+00
  -2.263376E+00   2.417717E+00
  -1.373324E+00   3.007861E+00
  -3.428423E-01   3.284077E+00
   7.208416E-01   3.218394E+00
   1.707306E+00   2.818415E+00
   2.514441E+00   2.126422E+00
   3.058994E+00   1.214849E+00
   3.285095E+00   1.787170E-01
   3.170010E+00  -8.742175E-01
   2.726444E+00  -1.834688E+00
   2.001118E+00  -2.603259E+00
   1.069845E+00  -3.100561E+00
   2.967694E-02  -3.275471E+00
  -1.011185E+00  -3.110419E+00
  -1.944677E+00  -2.623166E+00
  -2.674088E+00  -1.864867E+00
  -3.124047E+00  -9.147207E-01
  -3.248348E+00   1.282594E-01
  -3.034746E+00   1.155606E+00
  -2.506132E+00   2.060733E+00
  -1.718048E+00   2.749985E+00
  -7.528696E-01   3.152310E+00
   2.888022E-01   3.226642E+00
   1.298691E+00   2.966081E+00
   2.172108E+00   2.398472E+00
   2.818746E+00   1.583414E+00
   3.172011E+00   6.060469E-01
   3.195901E+00  -4.318536E-01
   2.888634E+00  -1.422497E+00
   2.282720E+00  -2.263218E+00
   1.441563E+00  -2.867063E+00
   4.528717E-01  -3.171811E+00
  -5.805121E-01  -3.146406E+00
  -1.551313E+00  -2.794087E+00
  -2.358915E+00  -2.152004E+00
  -2.919802E+00  -1.287363E+00
  -3.176266E+00  -2.903877E-01
  -3.102350E+00   7.351438E-01
  -2.706449E+00   1.682702E+00
  -2.030392E+00   2.454051E+00
  -1.145044E+00   2.969481E+00
  -1.428359E-01   3.176077E+00
   8.719340E-01   3.053100E+00
   1.793908E+00   2.614031E+00
   2.527591E+00   1.905117E+00
   2.997268E+00   1.000495E+00
   3.154792E+00  -5.613601E-03
   2.984451E+00  -1.008701E+00
   2.504541E+00  -1.904763E+00
   1.765443E+00  -2.601091E+00
   8.443244E-01  -3.025897E+00
  -1.629363E-01  -3.135677E+00
  -1.151678E+00  -2.919660E+00
  -2.019305E+00  -2.400924E+00
  -2.675989E+00  -1.633968E+00
  -3.053996E+00  -6.989551E-01
  -3.114643E+00   3.066655E-01
  -2.852273E+00   1.278278E+00
  -2.294828E+00   2.115006E+00
  -1.500843E+00   2.730245E+00
  -5.532464E-01   3.060599E+00
   4.492904E-01   3.072371E+00
   1.402606E+00   2.765012E+00
   2.207911E+00   2.171119E+00
   2.782041E+00   1.352915E+00
   3.065978E+00   3.957078E-01
   3.030899E+00  -6.009497E-01
   2.681141E+00  -1.533604E+00
   2.053674E+00  -2.305672E+00
   1.214164E+00  -2.837419E+00
   2.501396E-01  -3.074144E+00
  -7.380745E-01  -2.991842E+00
  -1.647820E+00  -2.599690E+00
  -2.384798E+00  -1.939004E+00
  -2.872808E+00  -1.078873E+00
  -3.061622E+00  -1.089846E-01
  -2.932209E+00   8.697260E-01
  -2.498657E+00   1.755642E+00
  -1.806591E+00   2.457030E+00
  -9.283627E-01   2.901501E+00
   4.448014E-02   3.043502E+00
   1.010781E+00   2.869023E+00
   1.870339E+00   2.396929E+00
   2.534260E+00   1.676885E+00
   2.934116E+00   7.841598E-01
   3.029023E+00  -1.882096E-01
   2.809834E+00  -1.139152E+00
   2.299955E+00  -1.970056E+00
   1.552861E+00  -2.594926E+00
   6.465505E-01  -2.949279E+00
  -3.245961E-01  -2.996841E+00
  -1.259677E+00  -2.733245E+00
  -2.061720E+00  -2.186394E+00
  -2.647709E+00  -1.413552E+00
  -2.957226E+00  -4.953804E-01
  -2.958722E+00   4.725267E-01
  -2.652697E+00   1.389630E+00
  -2.071566E+00   2.160859E+00
  -1.276273E+00   2.706474E+00
  -3.498862E-01   2.970373E+00
   6.111417E-01   2.925844E+00
   1.507004E+00   2.578212E+00
   2.244857E+00   1.964224E+00
   2.748460E+00   1.148197E+00
   2.966072E+00   2.152438E-01
   2.875710E+00  -7.376283E-01
   2.487330E+00  -1.611544E+00
   1.841786E+00  -2.315988E+00
   1.006547E+00  -2.778220E+00
   6.860539E-02  -2.950789E+00
  -8.745691E-01  -2.816356E+00
  -1.725107E+00  -2.389464E+00
  -2.394925E+00  -1.715030E+00
  -2.814899E+00  -8.635979E-01
  -2.941990E+00   7.607195E-02
  -2.763627E+00   1.006226E+00
  -2.299000E+00   1.830269E+00
  -1.597015E+00   2.462849E+00
  -7.310922E-01   2.838715E+00
   2.085301E-01   2.919390E+00
   1.124152E+00   2.697102E+00
   1.920780E+00   2.195556E+00
   2.516016E+00   1.467383E+00
   2.848554E+00   5.885656E-01
   2.884428E+00  -3.494664E-01
   2.620516E+00  -1.249301E+00
   2.084829E+00  -2.017694E+00
   1.333500E+00  -2.575251E+00
   4.448977E-01  -2.864584E+00
  -4.884915E-01  -2.856212E+00
  -1.369677E+00  -2.551629E+00
  -2.107292E+00  -1.983091E+00
  -2.625064E+00  -1.210164E+00
  -2.869658E+00  -3.135053E-01
  -2.816205E+00   6.135089E-01
  -2.470866E+00   1.474545E+00
  -1.870092E+00   2.180363E+00
  -1.076738E+00   2.658029E+00
  -1.735212E-01   2.858426E+00
   7.455996E-01   2.761349E+00
   1.585253E+00   2.377536E+00
   2.258555E+00   1.747427E+00
   2.696045E+00   9.369055E-01
   2.852859E+00   3.045528E-02
   2.713379E+00  -8.776595E-01
   2.292750E+00  -1.693233E+00
   1.635215E+00  -2.331846E+00
   8.095050E-01  -2.727568E+00
  -9.830211E-02  -2.839806E+00
  -9.937940E-01  -2.657486E+00
  -1.784048E+00  -2.200104E+00
  -2.387223E+00  -1.515643E+00
  -2.741039E+00  -6.755904E-01
  -2.809263E+00   2.325389E-01
  -2.585407E+00   1.114374E+00
  -2.093288E+00   1.878480E+00
  -1.384530E+00   2.445809E+00
  -5.331701E-01   2.757919E+00
   3.721221E-01   2.783022E+00
   1.237307E+00   2.519179E+00
   1.972699E+00   1.994404E+00
   2.502246E+00   1.263744E+00
   2.771441E+00   4.035035E-01
   2.752914E+00  -4.967667E-01
   2.449164E+00  -1.343569E+00
   1.892252E+00  -2.049113E+00
   1.140470E+00  -2.540433E+00
   2.722066E-01  -2.766970E+00
  -6.222534E-01  -2.705733E+00
  -1.450074E+00  -2.363608E+00
  -2.125488E+00  -1.776640E+00
  -2.578738E+00  -1.006250E+00
  -2.763301E+00  -1.327541E-01
  -2.660616E+00   7.530078E-01
  -2.281968E+00   1.559083E+00
  -1.667299E+00   2.201973E+00
  -8.809720E-01   2.615331E+00
  -4.989490E-03   2.756782E+00
   8.695232E-01   2.612223E+00
   1.651763E+00   2.197268E+00
   2.260712E+00   1.555574E+00
   2.633539E+00   7.542123E-01
   2.732026E+00  -1.233601E-01
   2.546468E+00  -9.859324E-01
   2.096682E+00  -1.744020E+00
   1.429876E+00  -2.319195E+00
   6.156511E-01  -2.652178E+00
  -2.612340E-01  -2.708910E+00
  -1.109650E+00  -2.484071E+00
  -1.841604E+00  -2.001610E+00
  -2.381399E+00  -1.312164E+00
  -2.673422E+00  -4.877208E-01
  -2.687862E+00   3.858481E-01
  -2.423800E+00   1.217725E+00
  -1.909246E+00   1.921636E+00
  -1.198114E+00   2.424794E+00
  -3.645880E-01   2.675367E+00
   5.045805E-01   2.647840E+00
   1.319126E+00   2.345645E+00
   1.994684E+00   1.800702E+00
   2.461487E+00   1.070023E+00
   2.671547E+00   2.297754E-01
   2.603634E+00  -6.326297E-01
   2.265432E+00  -1.427685E+00
   1.692636E+00  -2.073080E+00
   9.451906E-01  -2.502175E+00
   1.010697E-01  -2.670894E+00
  -7.518655E-01  -2.562301E+00
  -1.525052E+00  -2.188278E+00
  -2.138385E+00  -1.588196E+00
  -2.528485E+00  -8.248033E-01
  -2.655277E+00   2.229881E-02
  -2.506130E+00   8.650030E-01
  -2.097065E+00   1.615875E+00
  -1.471019E+00   2.197176E+00
  -6.933838E-01   2.548912E+00
   1.548356E-01   2.635073E+00
   9.855088E-01   2.447301E+00
   1.712522E+00   2.005655E+00
   2.260668E+00   1.356495E+00
   2.573452E+00   5.676469E-01
   2.618956E+00  -2.787100E-01
   2.393044E+00  -1.094633E+00
   1.919723E+00  -1.795506E+00
   1.248635E+00  -2.308793E+00
   4.498608E-01  -2.581596E+00
  -3.934379E-01  -2.586098E+00
  -1.193672E+00  -2.322356E+00
  -1.867876E+00  -1.818248E+00
  -2.346328E+00  -1.126573E+00
  -2.579804E+00  -3.194903E-01
  -2.544612E+00   5.190468E-01
  -2.244963E+00   1.301991E+00
  -1.712518E+00   1.948218E+00
  -1.003065E+00   2.390979E+00
  -1.906235E-01   2.584806E+00
   6.402771E-01   2.510138E+00
   1.403343E+00   2.175293E+00
   2.019484E+00   1.615598E+00
   2.425050E+00   8.896444E-01
   2.578380E+00   7.312084E-02
   2.464036E+00  -7.490480E-01
   2.094393E+00  -1.491497E+00
   1.508326E+00  -2.077319E+00
   7.670758E-01  -2.446056E+00
  -5.216722E-02  -2.559888E+00
  -8.642564E-01  -2.407509E+00
  -1.584944E+00  -2.005291E+00
  -2.139674E+00  -1.395524E+00
  -2.471282E+00  -6.419209E-01
  -2.545849E+00   1.770201E-01
  -2.356197E+00   9.761516E-01
  -1.922611E+00   1.672560E+00
  -1.290639E+00   2.194197E+00
  -5.262861E-01   2.487285E+00
